 % time (yr) / global total O2 (mol) / global mean O2 (mol kg-1) / surface (ice-free) O2 (mol kg-1) / benthic [> 2000 m] O2 (mol kg-1) / surface O2 (mol kg-1)
       0.500  0.236230290376E+18  0.176490E-03  0.279856E-03  0.173812E-03  0.279856E-03
       1.500  0.243130674296E+18  0.181646E-03  0.275883E-03  0.179043E-03  0.275883E-03
       2.500  0.246360980943E+18  0.184059E-03  0.269569E-03  0.181865E-03  0.269569E-03
       3.500  0.248226680022E+18  0.185453E-03  0.265729E-03  0.183623E-03  0.265790E-03
       4.500  0.249407865491E+18  0.186336E-03  0.263113E-03  0.184808E-03  0.263269E-03
       5.500  0.250180463903E+18  0.186913E-03  0.261130E-03  0.185678E-03  0.261365E-03
       6.500  0.250703407696E+18  0.187304E-03  0.259449E-03  0.186377E-03  0.259829E-03
       7.500  0.251065524930E+18  0.187575E-03  0.258043E-03  0.187001E-03  0.258545E-03
       8.500  0.251307497828E+18  0.187756E-03  0.256694E-03  0.187584E-03  0.257413E-03
       9.500  0.251463267701E+18  0.187872E-03  0.255394E-03  0.188136E-03  0.256347E-03
      10.500  0.251577402695E+18  0.187958E-03  0.254297E-03  0.188672E-03  0.255429E-03
      11.500  0.251650767269E+18  0.188013E-03  0.253204E-03  0.189225E-03  0.254576E-03
      12.500  0.251699844903E+18  0.188049E-03  0.252231E-03  0.189785E-03  0.253796E-03
      13.500  0.251741778938E+18  0.188081E-03  0.251299E-03  0.190371E-03  0.253044E-03
      14.500  0.251790507447E+18  0.188117E-03  0.250494E-03  0.190982E-03  0.252360E-03
      15.500  0.251854919397E+18  0.188166E-03  0.249780E-03  0.191636E-03  0.251744E-03
      16.500  0.251933624231E+18  0.188224E-03  0.249117E-03  0.192346E-03  0.251162E-03
      17.500  0.252025903584E+18  0.188294E-03  0.248516E-03  0.193069E-03  0.250633E-03
      18.500  0.252126411688E+18  0.188369E-03  0.247980E-03  0.193805E-03  0.250149E-03
      19.500  0.252234717705E+18  0.188450E-03  0.247487E-03  0.194608E-03  0.249699E-03
      21.500  0.252464597463E+18  0.188621E-03  0.246629E-03  0.196326E-03  0.248884E-03
      23.500  0.252712719555E+18  0.188807E-03  0.245872E-03  0.198166E-03  0.248139E-03
      25.500  0.252980762190E+18  0.189007E-03  0.245220E-03  0.200041E-03  0.247494E-03
      27.500  0.253261448147E+18  0.189217E-03  0.244655E-03  0.201940E-03  0.246938E-03
      29.500  0.253550812304E+18  0.189433E-03  0.244172E-03  0.203924E-03  0.246452E-03
      31.500  0.253854721606E+18  0.189660E-03  0.243735E-03  0.206004E-03  0.246004E-03
      33.500  0.254175119363E+18  0.189899E-03  0.243340E-03  0.208049E-03  0.245600E-03
      35.500  0.254511688592E+18  0.190151E-03  0.242972E-03  0.209985E-03  0.245228E-03
      37.500  0.254863074101E+18  0.190413E-03  0.242635E-03  0.211803E-03  0.244892E-03
      39.500  0.255222590580E+18  0.190682E-03  0.242353E-03  0.213515E-03  0.244606E-03
      41.500  0.255591936482E+18  0.190958E-03  0.242117E-03  0.215137E-03  0.244359E-03
      43.500  0.255967476773E+18  0.191238E-03  0.241882E-03  0.216689E-03  0.244126E-03
      45.500  0.256351574605E+18  0.191525E-03  0.241673E-03  0.218164E-03  0.243922E-03
      47.500  0.256744382808E+18  0.191819E-03  0.241483E-03  0.219558E-03  0.243734E-03
      49.500  0.257144912712E+18  0.192118E-03  0.241310E-03  0.220879E-03  0.243562E-03
      51.500  0.257554220907E+18  0.192424E-03  0.241151E-03  0.222161E-03  0.243407E-03
      53.500  0.257967728878E+18  0.192733E-03  0.240990E-03  0.223399E-03  0.243264E-03
      55.500  0.258381083266E+18  0.193042E-03  0.240848E-03  0.224593E-03  0.243123E-03
      57.500  0.258794743651E+18  0.193351E-03  0.240711E-03  0.225751E-03  0.242982E-03
      59.500  0.259210642526E+18  0.193662E-03  0.240601E-03  0.226863E-03  0.242857E-03
      61.500  0.259625988700E+18  0.193972E-03  0.240471E-03  0.227931E-03  0.242730E-03
      63.500  0.260045872642E+18  0.194286E-03  0.240355E-03  0.228964E-03  0.242613E-03
      65.500  0.260466528506E+18  0.194600E-03  0.240244E-03  0.229965E-03  0.242501E-03
      67.500  0.260882455870E+18  0.194911E-03  0.240142E-03  0.230941E-03  0.242399E-03
      69.500  0.261295216399E+18  0.195219E-03  0.240051E-03  0.231896E-03  0.242302E-03
      71.500  0.261712189820E+18  0.195530E-03  0.239962E-03  0.232833E-03  0.242212E-03
      73.500  0.262127935545E+18  0.195841E-03  0.239876E-03  0.233752E-03  0.242126E-03
      75.500  0.262539650639E+18  0.196149E-03  0.239800E-03  0.234631E-03  0.242048E-03
      77.500  0.262944699987E+18  0.196451E-03  0.239725E-03  0.235477E-03  0.241974E-03
      79.500  0.263350294164E+18  0.196754E-03  0.239653E-03  0.236296E-03  0.241902E-03
      81.500  0.263755424562E+18  0.197057E-03  0.239589E-03  0.237095E-03  0.241836E-03
      83.500  0.264158622337E+18  0.197358E-03  0.239529E-03  0.237874E-03  0.241774E-03
      85.500  0.264560848505E+18  0.197659E-03  0.239469E-03  0.238627E-03  0.241714E-03
      87.500  0.264964612827E+18  0.197960E-03  0.239416E-03  0.239364E-03  0.241658E-03
      89.500  0.265366793915E+18  0.198261E-03  0.239366E-03  0.240077E-03  0.241607E-03
      91.500  0.265766406019E+18  0.198559E-03  0.239322E-03  0.240771E-03  0.241562E-03
      93.500  0.266164999006E+18  0.198857E-03  0.239278E-03  0.241443E-03  0.241519E-03
      95.500  0.266563395667E+18  0.199155E-03  0.239238E-03  0.242100E-03  0.241476E-03
      97.500  0.266959947985E+18  0.199451E-03  0.239200E-03  0.242742E-03  0.241441E-03
      99.500  0.267353680228E+18  0.199745E-03  0.239168E-03  0.243370E-03  0.241407E-03
     104.500  0.268327738744E+18  0.200473E-03  0.239090E-03  0.244885E-03  0.241329E-03
     109.500  0.269291725181E+18  0.201193E-03  0.239018E-03  0.246329E-03  0.241259E-03
     114.500  0.270240066056E+18  0.201902E-03  0.238953E-03  0.247700E-03  0.241194E-03
     119.500  0.271171194280E+18  0.202598E-03  0.238894E-03  0.249003E-03  0.241131E-03
     124.500  0.272088874596E+18  0.203283E-03  0.238840E-03  0.250250E-03  0.241074E-03
     129.500  0.272994747064E+18  0.203960E-03  0.238797E-03  0.251440E-03  0.241027E-03
     134.500  0.273883605079E+18  0.204624E-03  0.238757E-03  0.252573E-03  0.240985E-03
     139.500  0.274758694842E+18  0.205278E-03  0.238736E-03  0.253656E-03  0.240947E-03
     144.500  0.275631756261E+18  0.205930E-03  0.238700E-03  0.254698E-03  0.240907E-03
     149.500  0.276500494555E+18  0.206579E-03  0.238665E-03  0.255700E-03  0.240872E-03
     154.500  0.277354048232E+18  0.207217E-03  0.238646E-03  0.256678E-03  0.240850E-03
     159.500  0.278187010060E+18  0.207839E-03  0.238589E-03  0.257626E-03  0.240829E-03
     164.500  0.278989038443E+18  0.208438E-03  0.238550E-03  0.258546E-03  0.240804E-03
     169.500  0.279776058301E+18  0.209026E-03  0.238570E-03  0.259432E-03  0.240828E-03
     174.500  0.280546363902E+18  0.209602E-03  0.238596E-03  0.260277E-03  0.240874E-03
     179.500  0.281299571371E+18  0.210165E-03  0.238563E-03  0.261085E-03  0.240867E-03
     184.500  0.282039410688E+18  0.210717E-03  0.238543E-03  0.261866E-03  0.240844E-03
     189.500  0.282762440717E+18  0.211258E-03  0.238519E-03  0.262632E-03  0.240825E-03
     194.500  0.283480256312E+18  0.211794E-03  0.238511E-03  0.263382E-03  0.240812E-03
     199.500  0.284190243487E+18  0.212324E-03  0.238503E-03  0.264112E-03  0.240806E-03
     204.500  0.284888946193E+18  0.212846E-03  0.238497E-03  0.264821E-03  0.240805E-03
     209.500  0.285578340248E+18  0.213361E-03  0.238498E-03  0.265509E-03  0.240803E-03
     214.500  0.286261128851E+18  0.213872E-03  0.238503E-03  0.266181E-03  0.240803E-03
     219.500  0.286936127907E+18  0.214376E-03  0.238508E-03  0.266828E-03  0.240806E-03
     224.500  0.287600562891E+18  0.214872E-03  0.238500E-03  0.267452E-03  0.240807E-03
     229.500  0.288250545077E+18  0.215358E-03  0.238490E-03  0.268054E-03  0.240808E-03
     234.500  0.288894697865E+18  0.215839E-03  0.238501E-03  0.268641E-03  0.240810E-03
     239.500  0.289531312682E+18  0.216315E-03  0.238494E-03  0.269206E-03  0.240815E-03
     244.500  0.290149853233E+18  0.216777E-03  0.238501E-03  0.269745E-03  0.240824E-03
     249.500  0.290760599033E+18  0.217233E-03  0.238499E-03  0.270265E-03  0.240833E-03
     254.500  0.291349592611E+18  0.217673E-03  0.238496E-03  0.270760E-03  0.240834E-03
     259.500  0.291930918063E+18  0.218108E-03  0.238504E-03  0.271238E-03  0.240848E-03
     264.500  0.292501967798E+18  0.218534E-03  0.238494E-03  0.271694E-03  0.240855E-03
     269.500  0.293057666413E+18  0.218949E-03  0.238488E-03  0.272128E-03  0.240864E-03
     274.500  0.293607348954E+18  0.219360E-03  0.238553E-03  0.272552E-03  0.240882E-03
     279.500  0.294158984241E+18  0.219772E-03  0.238554E-03  0.272973E-03  0.240895E-03
     284.500  0.294694964540E+18  0.220173E-03  0.238568E-03  0.273381E-03  0.240908E-03
     289.500  0.295219266850E+18  0.220564E-03  0.238568E-03  0.273778E-03  0.240916E-03
     294.500  0.295735062794E+18  0.220950E-03  0.238592E-03  0.274167E-03  0.240933E-03
     299.500  0.296241771071E+18  0.221328E-03  0.238585E-03  0.274545E-03  0.240942E-03
     304.500  0.296736961541E+18  0.221698E-03  0.238628E-03  0.274914E-03  0.240968E-03
     309.500  0.297221035131E+18  0.222060E-03  0.238618E-03  0.275266E-03  0.240979E-03
     314.500  0.297688881679E+18  0.222409E-03  0.238605E-03  0.275602E-03  0.240986E-03
     319.500  0.298142345556E+18  0.222748E-03  0.238594E-03  0.275921E-03  0.240999E-03
     324.500  0.298593012002E+18  0.223085E-03  0.238636E-03  0.276229E-03  0.241021E-03
     329.500  0.299036142479E+18  0.223416E-03  0.238633E-03  0.276521E-03  0.241038E-03
     334.500  0.299467506922E+18  0.223738E-03  0.238636E-03  0.276802E-03  0.241052E-03
     339.500  0.299878688859E+18  0.224045E-03  0.238587E-03  0.277059E-03  0.241057E-03
     344.500  0.300282515052E+18  0.224347E-03  0.238625E-03  0.277306E-03  0.241088E-03
     349.500  0.300680144483E+18  0.224644E-03  0.238639E-03  0.277544E-03  0.241110E-03
     354.500  0.301069950556E+18  0.224936E-03  0.238627E-03  0.277767E-03  0.241126E-03
     359.500  0.301452119538E+18  0.225221E-03  0.238615E-03  0.277981E-03  0.241142E-03
     364.500  0.301840355006E+18  0.225511E-03  0.238606E-03  0.278194E-03  0.241172E-03
     369.500  0.302210741555E+18  0.225788E-03  0.238644E-03  0.278383E-03  0.241201E-03
     374.500  0.302580201032E+18  0.226064E-03  0.238677E-03  0.278570E-03  0.241228E-03
     379.500  0.302944156763E+18  0.226336E-03  0.238703E-03  0.278751E-03  0.241256E-03
     384.500  0.303309223954E+18  0.226609E-03  0.238698E-03  0.278929E-03  0.241284E-03
     389.500  0.303659729757E+18  0.226870E-03  0.238665E-03  0.279091E-03  0.241302E-03
     394.500  0.304005366917E+18  0.227129E-03  0.238682E-03  0.279255E-03  0.241335E-03
     399.500  0.304349221912E+18  0.227386E-03  0.238703E-03  0.279414E-03  0.241381E-03
     404.500  0.304692111921E+18  0.227642E-03  0.238716E-03  0.279574E-03  0.241425E-03
     409.500  0.305019642857E+18  0.227887E-03  0.238657E-03  0.279724E-03  0.241446E-03
     414.500  0.305351378739E+18  0.228134E-03  0.238695E-03  0.279869E-03  0.241488E-03
     419.500  0.305692166496E+18  0.228389E-03  0.238764E-03  0.280009E-03  0.241541E-03
     424.500  0.306025040276E+18  0.228638E-03  0.238737E-03  0.280157E-03  0.241574E-03
     429.500  0.306360492249E+18  0.228888E-03  0.238753E-03  0.280293E-03  0.241618E-03
     434.500  0.306675253180E+18  0.229124E-03  0.238731E-03  0.280422E-03  0.241646E-03
     439.500  0.306958915569E+18  0.229335E-03  0.238730E-03  0.280545E-03  0.241660E-03
     444.500  0.307251447817E+18  0.229554E-03  0.238799E-03  0.280677E-03  0.241675E-03
     449.500  0.307515721090E+18  0.229751E-03  0.238728E-03  0.280786E-03  0.241689E-03
     454.500  0.307786526841E+18  0.229954E-03  0.238730E-03  0.280899E-03  0.241705E-03
     459.500  0.308061689540E+18  0.230159E-03  0.238734E-03  0.281008E-03  0.241719E-03
     464.500  0.308332657513E+18  0.230362E-03  0.238756E-03  0.281105E-03  0.241755E-03
     469.500  0.308585740641E+18  0.230551E-03  0.238745E-03  0.281197E-03  0.241771E-03
     474.500  0.308826349093E+18  0.230731E-03  0.238759E-03  0.281276E-03  0.241782E-03
     479.500  0.309067944698E+18  0.230911E-03  0.238788E-03  0.281361E-03  0.241810E-03
     484.500  0.309303617327E+18  0.231087E-03  0.238796E-03  0.281436E-03  0.241826E-03
     489.500  0.309539966105E+18  0.231264E-03  0.238851E-03  0.281511E-03  0.241860E-03
     494.500  0.309767173020E+18  0.231434E-03  0.238848E-03  0.281571E-03  0.241873E-03
     499.500  0.309991003916E+18  0.231601E-03  0.238889E-03  0.281627E-03  0.241901E-03
     504.500  0.310210960317E+18  0.231765E-03  0.238873E-03  0.281682E-03  0.241917E-03
     509.500  0.310427155172E+18  0.231927E-03  0.238902E-03  0.281735E-03  0.241935E-03
     514.500  0.310639064577E+18  0.232085E-03  0.238916E-03  0.281785E-03  0.241965E-03
     519.500  0.310847734994E+18  0.232241E-03  0.238932E-03  0.281834E-03  0.242004E-03
     524.500  0.311048614869E+18  0.232391E-03  0.238957E-03  0.281881E-03  0.242017E-03
     529.500  0.311253974981E+18  0.232544E-03  0.238941E-03  0.281926E-03  0.242031E-03
     534.500  0.311463275154E+18  0.232701E-03  0.238955E-03  0.281977E-03  0.242065E-03
     539.500  0.311666728345E+18  0.232853E-03  0.238960E-03  0.282026E-03  0.242094E-03
     544.500  0.311864095515E+18  0.233000E-03  0.238991E-03  0.282071E-03  0.242127E-03
     549.500  0.312048374376E+18  0.233138E-03  0.239023E-03  0.282116E-03  0.242159E-03
     554.500  0.312240297442E+18  0.233281E-03  0.239012E-03  0.282162E-03  0.242177E-03
     559.500  0.312428290571E+18  0.233422E-03  0.239051E-03  0.282204E-03  0.242219E-03
     564.500  0.312614370491E+18  0.233561E-03  0.239049E-03  0.282248E-03  0.242237E-03
     569.500  0.312792902566E+18  0.233694E-03  0.239088E-03  0.282294E-03  0.242273E-03
     574.500  0.312962238327E+18  0.233821E-03  0.239123E-03  0.282337E-03  0.242305E-03
     579.500  0.313126648304E+18  0.233944E-03  0.239127E-03  0.282380E-03  0.242329E-03
     584.500  0.313277134738E+18  0.234056E-03  0.239103E-03  0.282418E-03  0.242330E-03
     589.500  0.313430146008E+18  0.234170E-03  0.239107E-03  0.282457E-03  0.242365E-03
     594.500  0.313576476994E+18  0.234280E-03  0.239070E-03  0.282490E-03  0.242376E-03
     599.500  0.313727537329E+18  0.234393E-03  0.239092E-03  0.282524E-03  0.242421E-03
     604.500  0.313874646296E+18  0.234503E-03  0.239140E-03  0.282554E-03  0.242454E-03
     609.500  0.314019879764E+18  0.234611E-03  0.239150E-03  0.282589E-03  0.242495E-03
     614.500  0.314148412355E+18  0.234707E-03  0.239204E-03  0.282613E-03  0.242526E-03
     619.500  0.314268326242E+18  0.234797E-03  0.239180E-03  0.282629E-03  0.242537E-03
     624.500  0.314385896550E+18  0.234885E-03  0.239198E-03  0.282646E-03  0.242567E-03
     629.500  0.314499527369E+18  0.234969E-03  0.239178E-03  0.282660E-03  0.242581E-03
     634.500  0.314607803032E+18  0.235050E-03  0.239191E-03  0.282672E-03  0.242605E-03
     639.500  0.314709909382E+18  0.235127E-03  0.239221E-03  0.282676E-03  0.242634E-03
     644.500  0.314805737184E+18  0.235198E-03  0.239254E-03  0.282676E-03  0.242659E-03
     649.500  0.314903856035E+18  0.235272E-03  0.239244E-03  0.282670E-03  0.242677E-03
     654.500  0.314998073977E+18  0.235342E-03  0.239256E-03  0.282666E-03  0.242710E-03
     659.500  0.315084729147E+18  0.235407E-03  0.239289E-03  0.282660E-03  0.242740E-03
     664.500  0.315171186445E+18  0.235471E-03  0.239273E-03  0.282648E-03  0.242752E-03
     669.500  0.315257858960E+18  0.235536E-03  0.239276E-03  0.282628E-03  0.242781E-03
     674.500  0.315340736900E+18  0.235598E-03  0.239313E-03  0.282609E-03  0.242820E-03
     679.500  0.315417785234E+18  0.235656E-03  0.239298E-03  0.282588E-03  0.242844E-03
     684.500  0.315493893145E+18  0.235713E-03  0.239278E-03  0.282563E-03  0.242878E-03
     689.500  0.315562703015E+18  0.235764E-03  0.239321E-03  0.282530E-03  0.242918E-03
     694.500  0.315615960532E+18  0.235804E-03  0.239314E-03  0.282482E-03  0.242915E-03
     699.500  0.315670207513E+18  0.235844E-03  0.239363E-03  0.282428E-03  0.242949E-03
     704.500  0.315713051182E+18  0.235876E-03  0.239344E-03  0.282366E-03  0.242960E-03
     709.500  0.315747332963E+18  0.235902E-03  0.239284E-03  0.282300E-03  0.242968E-03
     714.500  0.315773946536E+18  0.235922E-03  0.239274E-03  0.282227E-03  0.243014E-03
     719.500  0.315790982654E+18  0.235935E-03  0.239274E-03  0.282140E-03  0.243034E-03
     724.500  0.315795202953E+18  0.235938E-03  0.239259E-03  0.282040E-03  0.243047E-03
     729.500  0.315801118953E+18  0.235942E-03  0.239302E-03  0.281933E-03  0.243082E-03
     734.500  0.315792143273E+18  0.235935E-03  0.239293E-03  0.281818E-03  0.243095E-03
     739.500  0.315788818240E+18  0.235933E-03  0.239293E-03  0.281698E-03  0.243118E-03
     744.500  0.315791309364E+18  0.235935E-03  0.239293E-03  0.281572E-03  0.243142E-03
     749.500  0.315786893594E+18  0.235932E-03  0.239304E-03  0.281446E-03  0.243167E-03
     754.500  0.315775295986E+18  0.235923E-03  0.239324E-03  0.281317E-03  0.243179E-03
     759.500  0.315750095592E+18  0.235904E-03  0.239317E-03  0.281184E-03  0.243205E-03
     764.500  0.315719268206E+18  0.235881E-03  0.239324E-03  0.281044E-03  0.243233E-03
     769.500  0.315689544914E+18  0.235859E-03  0.239297E-03  0.280900E-03  0.243256E-03
     774.500  0.315650283224E+18  0.235830E-03  0.239280E-03  0.280743E-03  0.243278E-03
     779.500  0.315600227413E+18  0.235792E-03  0.239256E-03  0.280581E-03  0.243306E-03
     784.500  0.315542149906E+18  0.235749E-03  0.239324E-03  0.280404E-03  0.243320E-03
     789.500  0.315498600291E+18  0.235716E-03  0.239275E-03  0.280220E-03  0.243341E-03
     794.500  0.315424762645E+18  0.235661E-03  0.239316E-03  0.280031E-03  0.243354E-03
     799.500  0.315336147025E+18  0.235595E-03  0.239319E-03  0.279828E-03  0.243350E-03
     804.500  0.315257129785E+18  0.235536E-03  0.239308E-03  0.279616E-03  0.243390E-03
     809.500  0.315180804466E+18  0.235479E-03  0.239316E-03  0.279392E-03  0.243407E-03
     814.500  0.315078273660E+18  0.235402E-03  0.239286E-03  0.279166E-03  0.243412E-03
     819.500  0.314969962508E+18  0.235321E-03  0.239322E-03  0.278936E-03  0.243432E-03
     824.500  0.314861789662E+18  0.235241E-03  0.239282E-03  0.278698E-03  0.243445E-03
     829.500  0.314755495517E+18  0.235161E-03  0.239314E-03  0.278454E-03  0.243478E-03
     834.500  0.314635723752E+18  0.235072E-03  0.239251E-03  0.278204E-03  0.243486E-03
     839.500  0.314508492480E+18  0.234977E-03  0.239334E-03  0.277940E-03  0.243513E-03
     844.500  0.314383961058E+18  0.234884E-03  0.239298E-03  0.277665E-03  0.243539E-03
     849.500  0.314249581397E+18  0.234783E-03  0.239262E-03  0.277383E-03  0.243542E-03
     854.500  0.314116724295E+18  0.234684E-03  0.239314E-03  0.277105E-03  0.243566E-03
     859.500  0.313981796368E+18  0.234583E-03  0.239284E-03  0.276821E-03  0.243601E-03
     864.500  0.313835486794E+18  0.234474E-03  0.239281E-03  0.276531E-03  0.243590E-03
     869.500  0.313699449895E+18  0.234372E-03  0.239253E-03  0.276239E-03  0.243622E-03
     874.500  0.313550697482E+18  0.234261E-03  0.239267E-03  0.275943E-03  0.243618E-03
     879.500  0.313391877066E+18  0.234143E-03  0.239273E-03  0.275633E-03  0.243650E-03
     884.500  0.313239505262E+18  0.234029E-03  0.239303E-03  0.275319E-03  0.243687E-03
     889.500  0.313074552741E+18  0.233905E-03  0.239258E-03  0.275001E-03  0.243681E-03
     894.500  0.312905476774E+18  0.233779E-03  0.239282E-03  0.274678E-03  0.243686E-03
     899.500  0.312740029458E+18  0.233656E-03  0.239333E-03  0.274355E-03  0.243732E-03
     904.500  0.312568018121E+18  0.233527E-03  0.239275E-03  0.274032E-03  0.243726E-03
     909.500  0.312392083087E+18  0.233396E-03  0.239243E-03  0.273699E-03  0.243734E-03
