 % time (yr) / temperature (C) / _surT (ice-free) (C) / _benT (C) [> 2000 m] / _surT (C)
       0.500    5.030709    7.423320    4.972166    7.423320
       1.500    5.071454   10.268904    4.927495   10.268904
       2.500    5.102781   11.814889    4.892651   11.814889
       3.500    5.128635   12.791464    4.862464   12.776146
       4.500    5.150916   13.481600    4.834890   13.440470
       5.500    5.170630   14.000273    4.808786   13.941159
       6.500    5.188365   14.435190    4.783619   14.342798
       7.500    5.204464   14.799339    4.758697   14.680516
       8.500    5.219219   15.139222    4.734004   14.970749
       9.500    5.232843   15.445478    4.709431   15.221900
      10.500    5.245468   15.708337    4.685095   15.446751
      11.500    5.257252   15.962792    4.660947   15.650151
      12.500    5.268254   16.185969    4.637199   15.834935
      13.500    5.278519   16.393194    4.613621   16.006677
      14.500    5.288108   16.571638    4.589765   16.165653
      15.500    5.297041   16.733856    4.565843   16.314111
      16.500    5.305346   16.883491    4.541698   16.451967
      17.500    5.313052   17.021536    4.517902   16.580989
      18.500    5.320194   17.146776    4.493959   16.701504
      19.500    5.326806   17.262211    4.469387   16.813145
      21.500    5.338576   17.466681    4.419586   17.015587
      23.500    5.348605   17.642772    4.369085   17.189435
      25.500    5.357142   17.793073    4.320300   17.336202
      27.500    5.364411   17.922627    4.272295   17.461415
      29.500    5.370577   18.035186    4.223888   17.572690
      31.500    5.375730   18.137735    4.174581   17.676016
      33.500    5.379952   18.229769    4.126242   17.768490
      35.500    5.383332   18.316330    4.079549   17.854367
      37.500    5.385914   18.395906    4.034584   17.932937
      39.500    5.387785   18.464577    3.991306   18.002370
      41.500    5.389042   18.524045    3.949525   18.064243
      43.500    5.389752   18.580755    3.908849   18.120041
      45.500    5.389968   18.631512    3.869773   18.169641
      47.500    5.389745   18.677066    3.832562   18.214591
      49.500    5.389118   18.719286    3.796750   18.256573
      51.500    5.388117   18.758784    3.761795   18.295113
      53.500    5.386752   18.797976    3.727785   18.331265
      55.500    5.385058   18.832964    3.694738   18.365910
      57.500    5.383048   18.866032    3.662520   18.399530
      59.500    5.380748   18.894541    3.631138   18.431081
      61.500    5.378170   18.925169    3.600658   18.461104
      63.500    5.375324   18.952567    3.570812   18.488727
      65.500    5.372223   18.979344    3.541632   18.515253
      67.500    5.368884   19.004503    3.513145   18.540092
      69.500    5.365321   19.026193    3.484995   18.562830
      71.500    5.361554   19.047309    3.457027   18.584571
      73.500    5.357587   19.068040    3.429336   18.605106
      75.500    5.353435   19.086971    3.402637   18.624241
      77.500    5.349108   19.105309    3.376855   18.642418
      79.500    5.344618   19.122217    3.351817   18.659159
      81.500    5.339977   19.137690    3.327401   18.675024
      83.500    5.335192   19.152201    3.303429   18.689715
      85.500    5.330272   19.166192    3.280175   18.703579
      87.500    5.325222   19.178874    3.257434   18.717036
      89.500    5.320049   19.191143    3.235208   18.729584
      91.500    5.314765   19.202468    3.213436   18.740762
      93.500    5.309380   19.213132    3.192221   18.751295
      95.500    5.303897   19.222804    3.171415   18.761306
      97.500    5.298323   19.232456    3.150968   18.770799
      99.500    5.292663   19.240889    3.130835   18.779543
     104.500    5.278178   19.261039    3.081909   18.799499
     109.500    5.263256   19.279467    3.034730   18.817587
     114.500    5.247925   19.296018    2.989272   18.834132
     119.500    5.232202   19.311380    2.945439   18.850016
     124.500    5.216117   19.324867    2.902629   18.863951
     129.500    5.199724   19.336190    2.861102   18.876162
     134.500    5.183056   19.346600    2.820744   18.886616
     139.500    5.166166   19.353174    2.781314   18.896488
     144.500    5.149067   19.361358    2.742738   18.905126
     149.500    5.131750   19.370355    2.705007   18.914058
     154.500    5.114243   19.376609    2.667943   18.920441
     159.500    5.096603   19.389359    2.631344   18.925470
     164.500    5.078848   19.398177    2.595141   18.930025
     169.500    5.061060   19.397018    2.559668   18.927585
     174.500    5.043609   19.392966    2.525424   18.919824
     179.500    5.026182   19.400522    2.492019   18.922104
     184.500    5.008660   19.405074    2.458921   18.927618
     189.500    4.990991   19.410340    2.425705   18.932048
     194.500    4.973220   19.412685    2.392522   18.935449
     199.500    4.955374   19.415289    2.359466   18.937595
     204.500    4.937479   19.417364    2.326677   18.938868
     209.500    4.919544   19.417871    2.294174   18.939895
     214.500    4.901579   19.417724    2.261981   18.940696
     219.500    4.883589   19.417904    2.230284   18.940988
     224.500    4.865580   19.420593    2.199080   18.941575
     229.500    4.847559   19.423534    2.168290   18.941990
     234.500    4.829521   19.422311    2.137604   18.942298
     239.500    4.811477   19.424629    2.107408   18.941827
     244.500    4.793456   19.424524    2.077741   18.941089
     249.500    4.775463   19.426459    2.048452   18.940363
     254.500    4.757490   19.427094    2.019484   18.939393
     259.500    4.739538   19.427022    1.990772   18.937822
     264.500    4.721614   19.429543    1.962351   18.936306
     269.500    4.703732   19.431306    1.934081   18.934125
     274.500    4.685902   19.419363    1.906031   18.932552
     279.500    4.668117   19.420044    1.878007   18.930437
     284.500    4.650375   19.418818    1.850332   18.929072
     289.500    4.632675   19.418901    1.822972   18.927107
     294.500    4.615009   19.415274    1.795532   18.925046
     299.500    4.597384   19.417645    1.768180   18.923159
     304.500    4.579824   19.410432    1.741217   18.919815
     309.500    4.562326   19.413062    1.714506   18.917185
     314.500    4.544891   19.415458    1.688157   18.914449
     319.500    4.527519   19.418030    1.662148   18.911301
     324.500    4.510212   19.410746    1.636500   18.908044
     329.500    4.492957   19.412224    1.611242   18.904537
     334.500    4.475741   19.411807    1.586386   18.900916
     339.500    4.458619   19.420796    1.561841   18.896332
     344.500    4.441583   19.414420    1.537758   18.890846
     349.500    4.424694   19.411580    1.513939   18.885289
     354.500    4.407894   19.413495    1.490536   18.880154
     359.500    4.391145   19.415298    1.467564   18.874122
     364.500    4.374477   19.416670    1.444926   18.867325
     369.500    4.357952   19.410520    1.422612   18.862050
     374.500    4.341577   19.403336    1.400827   18.856910
     379.500    4.325328   19.398170    1.379383   18.851347
     384.500    4.309154   19.399103    1.358369   18.844956
     389.500    4.293097   19.404546    1.337710   18.839201
     394.500    4.277174   19.402653    1.317368   18.832629
     399.500    4.261391   19.395756    1.297410   18.825082
     404.500    4.245793   19.396396    1.277745   18.818154
     409.500    4.230307   19.403678    1.258540   18.809177
     414.500    4.214974   19.396617    1.239610   18.801911
     419.500    4.199772   19.382862    1.221137   18.795729
     424.500    4.184748   19.385280    1.202919   18.787702
     429.500    4.169835   19.381896    1.185126   18.778831
     434.500    4.155118   19.388529    1.167476   18.772127
     439.500    4.140525   19.388367    1.149972   18.766337
     444.500    4.126079   19.373543    1.132751   18.765016
     449.500    4.111686   19.387274    1.116039   18.758694
     454.500    4.097367   19.385169    1.099444   18.753343
     459.500    4.083206   19.384150    1.083218   18.749009
     464.500    4.069157   19.380029    1.067222   18.743084
     469.500    4.055197   19.384305    1.051391   18.737652
     474.500    4.041348   19.381381    1.035778   18.732764
     479.500    4.027649   19.374641    1.020084   18.727013
     484.500    4.014109   19.373901    1.004884   18.721128
     489.500    4.000676   19.363588    0.989722   18.714910
     494.500    3.987403   19.363952    0.975162   18.709734
     499.500    3.974216   19.355937    0.960801   18.704400
     504.500    3.961157   19.357102    0.946563   18.698128
     509.500    3.948241   19.351763    0.932551   18.692771
     514.500    3.935435   19.349467    0.918814   18.687176
     519.500    3.922730   19.347730    0.905330   18.681758
     524.500    3.910155   19.341725    0.891947   18.676947
     529.500    3.897589   19.343433    0.878743   18.670433
     534.500    3.885079   19.339691    0.865717   18.662838
     539.500    3.872758   19.338301    0.852959   18.656588
     544.500    3.860588   19.331990    0.840300   18.650614
     549.500    3.848596   19.328538    0.827893   18.645862
     554.500    3.836655   19.326819    0.815870   18.638723
     559.500    3.824899   19.321278    0.804088   18.633083
     564.500    3.813253   19.319469    0.792451   18.626825
     569.500    3.801758   19.315125    0.781016   18.621865
     574.500    3.790416   19.307118    0.769766   18.617035
     579.500    3.779179   19.306773    0.758734   18.611283
     584.500    3.768092   19.309151    0.747922   18.605537
     589.500    3.757082   19.307377    0.737428   18.599883
     594.500    3.746212   19.313344    0.727224   18.593546
     599.500    3.735408   19.310256    0.717035   18.587357
     604.500    3.724743   19.304131    0.706855   18.582305
     609.500    3.714172   19.300602    0.697052   18.576740
     614.500    3.703800   19.292069    0.687348   18.572338
     619.500    3.693525   19.295146    0.678027   18.566967
     624.500    3.683341   19.292300    0.668799   18.562254
     629.500    3.673229   19.294076    0.659953   18.557048
     634.500    3.663275   19.291762    0.651380   18.552312
     639.500    3.653419   19.288403    0.643159   18.547767
     644.500    3.643698   19.282329    0.634977   18.542960
     649.500    3.634099   19.281177    0.627281   18.537063
     654.500    3.624598   19.279932    0.619839   18.531748
     659.500    3.615220   19.274722    0.612464   18.527015
     664.500    3.605955   19.275639    0.605206   18.522178
     669.500    3.596776   19.274517    0.598392   18.517363
     674.500    3.587753   19.270141    0.591837   18.512022
     679.500    3.578828   19.270431    0.585516   18.505474
     684.500    3.570059   19.273131    0.579371   18.498629
     689.500    3.561430   19.268013    0.573444   18.493178
     694.500    3.552914   19.267668    0.567880   18.488899
     699.500    3.544465   19.260029    0.562621   18.485965
     704.500    3.536140   19.262043    0.557709   18.482161
     709.500    3.527927   19.272046    0.553000   18.475823
     714.500    3.519834   19.274970    0.548452   18.469604
     719.500    3.511896   19.275810    0.544125   18.464669
     724.500    3.504058   19.277091    0.539953   18.459736
     729.500    3.496331   19.269560    0.535920   18.455208
     734.500    3.488715   19.270604    0.532150   18.451105
     739.500    3.481201   19.270793    0.528559   18.446480
     744.500    3.473806   19.269807    0.525199   18.441118
     749.500    3.466543   19.267704    0.522058   18.435338
     754.500    3.459383   19.264981    0.519223   18.430846
     759.500    3.452335   19.265683    0.516506   18.425459
     764.500    3.445420   19.264679    0.513871   18.420331
     769.500    3.438632   19.269319    0.511094   18.414519
     774.500    3.431964   19.273049    0.508740   18.409054
     779.500    3.425370   19.278519    0.506417   18.403875
     784.500    3.418942   19.263175    0.504382   18.401130
     789.500    3.412586   19.273380    0.502625   18.396931
     794.500    3.406320   19.266849    0.500934   18.393683
     799.500    3.400130   19.265812    0.499527   18.389903
     804.500    3.394053   19.268801    0.498325   18.383509
     809.500    3.388093   19.266982    0.497429   18.379040
     814.500    3.382175   19.271749    0.496581   18.373384
     819.500    3.376422   19.266237    0.495751   18.368588
     824.500    3.370754   19.273332    0.495087   18.363227
     829.500    3.365233   19.266564    0.494540   18.357154
     834.500    3.359779   19.278956    0.494226   18.351588
     839.500    3.354480   19.261655    0.494165   18.346706
     844.500    3.349263   19.271540    0.494381   18.340863
     849.500    3.344162   19.276260    0.494760   18.335179
     854.500    3.339164   19.265666    0.494996   18.330210
     859.500    3.334252   19.271299    0.495688   18.323868
     864.500    3.329468   19.270292    0.496557   18.320132
     869.500    3.324712   19.276103    0.497632   18.313584
     874.500    3.320056   19.274514    0.498740   18.308585
     879.500    3.315526   19.271347    0.500304   18.303411
     884.500    3.311066   19.266468    0.502018   18.297953
     889.500    3.306679   19.273243    0.503921   18.292529
     894.500    3.302405   19.269463    0.505998   18.287113
     899.500    3.298230   19.260751    0.508079   18.282578
     904.500    3.294141   19.270273    0.510183   18.280515
     909.500    3.290156   19.276739    0.512621   18.275180
     914.500    3.286241   19.264527    0.515174   18.269541
     919.500    3.282418   19.265708    0.517787   18.262808
     924.500    3.278640   19.258549    0.520452   18.255042
     929.500    3.274998   19.263755    0.523203   18.253475
     934.500    3.271364   19.253537    0.526201   18.248156
     939.500    3.267889   19.257500    0.529353   18.242535
     944.500    3.264496   19.260022    0.532567   18.237111
     949.500    3.261152   19.262200    0.535950   18.231635
     954.500    3.257955   19.261153    0.539436   18.226429
     959.500    3.254842   19.262508    0.543049   18.222247
     964.500    3.251785   19.256871    0.546803   18.217192
     969.500    3.248774   19.256571    0.550680   18.212456
     974.500    3.245852   19.274049    0.554671   18.207187
     979.500    3.243031   19.268805    0.558807   18.202314
     984.500    3.240371   19.260585    0.563081   18.197384
     989.500    3.237789   19.271514    0.567464   18.192324
     994.500    3.235236   19.264841    0.571941   18.186053
     999.500    3.232830   19.256712    0.576570   18.182220
    1019.500    3.223900   19.255536    0.595615   18.165797
    1039.500    3.216231   19.246482    0.616257   18.150078
    1059.500    3.209675   19.231981    0.637982   18.135225
    1079.500    3.204188   19.227295    0.660965   18.120145
    1099.500    3.199864   19.229034    0.685011   18.104470
    1119.500    3.196804   19.206946    0.709957   18.088296
    1139.500    3.195012   19.208085    0.735454   18.076436
    1159.500    3.194168   19.199149    0.761134   18.066826
    1179.500    3.194060   19.194829    0.787022   18.055630
    1199.500    3.194824   19.187136    0.812946   18.046758
    1219.500    3.196421   19.186428    0.838769   18.038334
    1239.500    3.198705   19.177567    0.864199   18.030482
    1259.500    3.201537   19.176789    0.889533   18.023214
    1279.500    3.204850   19.171984    0.914749   18.015852
    1299.500    3.208845   19.167237    0.939858   18.009269
    1319.500    3.213169   19.166372    0.964586   18.004216
    1339.500    3.217965   19.160417    0.988481   17.999405
    1359.500    3.223174   19.157122    1.011913   17.995823
    1379.500    3.228576   19.158594    1.034565   17.992989
    1399.500    3.234214   19.160302    1.056333   17.988686
    1419.500    3.240033   19.159714    1.077571   17.984400
    1439.500    3.246232   19.159989    1.098480   17.981271
    1459.500    3.252721   19.159484    1.119235   17.978047
    1479.500    3.259535   19.157126    1.139806   17.974908
    1499.500    3.266673   19.154453    1.160032   17.972771
    1519.500    3.273954   19.161002    1.180089   17.970121
    1539.500    3.281326   19.159848    1.199626   17.968185
    1559.500    3.288826   19.158272    1.218616   17.967162
    1579.500    3.296480   19.157301    1.236917   17.965852
    1599.500    3.304227   19.156850    1.254547   17.964944
    1619.500    3.312052   19.154590    1.271692   17.964152
    1639.500    3.319944   19.155262    1.288512   17.963337
    1659.500    3.327885   19.154203    1.305047   17.962824
    1679.500    3.335866   19.153595    1.320849   17.963377
    1699.500    3.343818   19.152832    1.336027   17.963394
    1719.500    3.351768   19.153041    1.350727   17.963423
    1739.500    3.359710   19.153883    1.364945   17.963615
    1759.500    3.367615   19.154240    1.378697   17.963821
    1779.500    3.375447   19.155262    1.391956   17.965310
    1799.500    3.383209   19.164030    1.404617   17.965089
    1819.500    3.390871   19.163135    1.416210   17.966487
    1839.500    3.398445   19.163807    1.426532   17.966600
    1859.500    3.405986   19.163642    1.436308   17.966959
    1879.500    3.413481   19.164612    1.445724   17.967988
    1899.500    3.420885   19.166034    1.454825   17.968773
    1919.500    3.428177   19.160611    1.463616   17.969941
    1939.500    3.435366   19.166966    1.472154   17.971373
    1959.500    3.442410   19.168730    1.480306   17.972588
    1979.500    3.449299   19.170207    1.488122   17.973999
    1999.500    3.456078   19.165366    1.495589   17.975315
    2049.500    3.472500   19.166735    1.512817   17.979122
    2099.500    3.488034   19.168937    1.528082   17.983195
    2149.500    3.502639   19.168990    1.541446   17.987358
    2199.500    3.516261   19.171785    1.553007   17.992212
    2249.500    3.528895   19.173123    1.562757   17.996494
    2299.500    3.540649   19.173087    1.570773   18.000734
    2349.500    3.551482   19.175300    1.577308   18.005303
    2399.500    3.561424   19.175371    1.582390   18.010710
    2449.500    3.570521   19.180157    1.586136   18.015278
    2499.500    3.578409   19.180026    1.588488   18.019244
    2549.500    3.585496   19.187284    1.589451   18.023692
    2599.500    3.591645   19.190178    1.589241   18.027921
    2649.500    3.596761   19.192602    1.587939   18.031457
    2699.500    3.601041   19.192817    1.585571   18.035277
    2749.500    3.604713   19.195909    1.582429   18.038446
    2799.500    3.607661   19.190308    1.578933   18.041906
    2849.500    3.610050   19.190337    1.575112   18.045345
    2899.500    3.611847   19.190108    1.570972   18.048405
    2949.500    3.612943   19.188932    1.566290   18.051217
    2999.500    3.613322   19.190553    1.560959   18.053772
    3049.500    3.613250   19.191247    1.555195   18.056198
    3099.500    3.612674   19.191248    1.549294   18.058091
    3149.500    3.611570   19.192044    1.543278   18.059552
    3199.500    3.610140   19.197166    1.537242   18.061224
    3249.500    3.608427   19.196949    1.531303   18.061943
    3299.500    3.606474   19.199991    1.525521   18.063072
    3349.500    3.604528   19.198213    1.520001   18.064300
    3399.500    3.602423   19.201280    1.514898   18.064662
    3449.500    3.600185   19.200832    1.510138   18.064824
    3499.500    3.598013   19.201252    1.505741   18.065376
    3549.500    3.595857   19.201391    1.501791   18.065357
    3599.500    3.593638   19.205343    1.498233   18.065002
    3649.500    3.591413   19.205834    1.494932   18.064633
    3699.500    3.589353   19.199276    1.492040   18.064257
    3749.500    3.587346   19.204891    1.489460   18.063892
    3799.500    3.585508   19.198456    1.487161   18.063705
