 % time (yr) / global POC_13C flux (mol yr-1) / global POC_13C delta (o/oo)
       0.500  0.1191270E+13       -27.238
       1.500  0.1292457E+13       -24.599
       2.500  0.1256767E+13       -23.739
       3.500  0.1167261E+13       -23.472
       4.500  0.1083506E+13       -23.412
       5.500  0.1021488E+13       -23.393
       6.500  0.9752337E+12       -23.341
       7.500  0.9359883E+12       -23.311
       8.500  0.9035089E+12       -23.306
       9.500  0.8670537E+12       -23.272
      10.500  0.8399526E+12       -23.249
      11.500  0.8153856E+12       -23.246
      12.500  0.7930678E+12       -23.223
      13.500  0.7737651E+12       -23.201
      14.500  0.7565805E+12       -23.187
      15.500  0.7421045E+12       -23.167
      16.500  0.7292195E+12       -23.144
      17.500  0.7184922E+12       -23.125
      18.500  0.7095736E+12       -23.104
      19.500  0.7017424E+12       -23.090
      21.500  0.6907404E+12       -23.054
      23.500  0.6826340E+12       -23.029
      25.500  0.6762766E+12       -23.002
      27.500  0.6709651E+12       -22.952
      29.500  0.6658194E+12       -22.923
      31.500  0.6611328E+12       -22.895
      33.500  0.6559372E+12       -22.867
      35.500  0.6509352E+12       -22.837
      37.500  0.6457363E+12       -22.811
      39.500  0.6401825E+12       -22.783
      41.500  0.6354976E+12       -22.784
      43.500  0.6305119E+12       -22.772
      45.500  0.6258934E+12       -22.770
      47.500  0.6219861E+12       -22.772
      49.500  0.6186949E+12       -22.772
      51.500  0.6148150E+12       -22.769
      53.500  0.6122580E+12       -22.761
      55.500  0.6101004E+12       -22.760
      57.500  0.6082374E+12       -22.760
      59.500  0.6066706E+12       -22.764
      61.500  0.6052866E+12       -22.763
      63.500  0.6041443E+12       -22.757
      65.500  0.6030279E+12       -22.754
      67.500  0.6019860E+12       -22.750
      69.500  0.6009630E+12       -22.748
      71.500  0.6001468E+12       -22.743
      73.500  0.5995124E+12       -22.739
      75.500  0.5987982E+12       -22.736
      77.500  0.5981507E+12       -22.734
      79.500  0.5975064E+12       -22.732
      81.500  0.5968925E+12       -22.730
      83.500  0.5962379E+12       -22.729
      85.500  0.5955945E+12       -22.726
      87.500  0.5948583E+12       -22.721
      89.500  0.5942069E+12       -22.717
      91.500  0.5936131E+12       -22.714
      93.500  0.5929762E+12       -22.712
      95.500  0.5923002E+12       -22.710
      97.500  0.5917216E+12       -22.710
      99.500  0.5908324E+12       -22.707
     104.500  0.5885941E+12       -22.699
     109.500  0.5863917E+12       -22.689
     114.500  0.5848074E+12       -22.680
     119.500  0.5837681E+12       -22.673
     124.500  0.5830965E+12       -22.670
     129.500  0.5826777E+12       -22.668
     134.500  0.5824279E+12       -22.667
     139.500  0.5823937E+12       -22.675
     144.500  0.5823324E+12       -22.676
     149.500  0.5822780E+12       -22.678
     154.500  0.5823474E+12       -22.678
     159.500  0.5825882E+12       -22.697
     164.500  0.5831555E+12       -22.690
     169.500  0.5834211E+12       -22.695
     174.500  0.5818399E+12       -22.697
     179.500  0.5817089E+12       -22.682
     184.500  0.5816065E+12       -22.677
     189.500  0.5818228E+12       -22.675
     194.500  0.5822140E+12       -22.674
     199.500  0.5826705E+12       -22.675
     204.500  0.5834269E+12       -22.676
     209.500  0.5839394E+12       -22.678
     214.500  0.5845076E+12       -22.679
     219.500  0.5849389E+12       -22.679
     224.500  0.5855436E+12       -22.678
     229.500  0.5860351E+12       -22.679
     234.500  0.5864562E+12       -22.684
     239.500  0.5867646E+12       -22.683
     244.500  0.5869643E+12       -22.688
     249.500  0.5873434E+12       -22.686
     254.500  0.5864824E+12       -22.688
     259.500  0.5863785E+12       -22.684
     264.500  0.5860141E+12       -22.682
     269.500  0.5855055E+12       -22.681
     274.500  0.5854239E+12       -22.687
     279.500  0.5846779E+12       -22.690
     284.500  0.5840937E+12       -22.686
     289.500  0.5834009E+12       -22.682
     294.500  0.5825342E+12       -22.696
     299.500  0.5816708E+12       -22.693
     304.500  0.5814707E+12       -22.696
     309.500  0.5803784E+12       -22.702
     314.500  0.5792954E+12       -22.701
     319.500  0.5783666E+12       -22.700
     324.500  0.5777163E+12       -22.702
     329.500  0.5770753E+12       -22.701
     334.500  0.5761974E+12       -22.701
     339.500  0.5750094E+12       -22.696
     344.500  0.5745239E+12       -22.697
     349.500  0.5738024E+12       -22.698
     354.500  0.5730756E+12       -22.698
     359.500  0.5722841E+12       -22.696
     364.500  0.5715952E+12       -22.685
     369.500  0.5712795E+12       -22.682
     374.500  0.5707039E+12       -22.683
     379.500  0.5701031E+12       -22.686
     384.500  0.5696988E+12       -22.683
     389.500  0.5688172E+12       -22.686
     394.500  0.5686858E+12       -22.679
     399.500  0.5677903E+12       -22.692
     404.500  0.5676974E+12       -22.691
     409.500  0.5667159E+12       -22.681
     414.500  0.5662919E+12       -22.682
     419.500  0.5658397E+12       -22.691
     424.500  0.5649789E+12       -22.687
     429.500  0.5643276E+12       -22.690
     434.500  0.5639797E+12       -22.697
     439.500  0.5643952E+12       -22.680
     444.500  0.5625627E+12       -22.702
     449.500  0.5630272E+12       -22.687
     454.500  0.5621727E+12       -22.706
     459.500  0.5620007E+12       -22.699
     464.500  0.5617637E+12       -22.710
     469.500  0.5610531E+12       -22.700
     474.500  0.5612750E+12       -22.696
     479.500  0.5603972E+12       -22.704
     484.500  0.5602734E+12       -22.696
     489.500  0.5603603E+12       -22.690
     494.500  0.5591575E+12       -22.692
     499.500  0.5591517E+12       -22.692
     504.500  0.5583065E+12       -22.697
     509.500  0.5582127E+12       -22.690
     514.500  0.5575880E+12       -22.691
     519.500  0.5571964E+12       -22.684
     524.500  0.5573676E+12       -22.685
     529.500  0.5563904E+12       -22.694
     534.500  0.5556594E+12       -22.688
     539.500  0.5552487E+12       -22.691
     544.500  0.5547872E+12       -22.695
     549.500  0.5547399E+12       -22.680
     554.500  0.5538961E+12       -22.684
     559.500  0.5540148E+12       -22.685
     564.500  0.5531711E+12       -22.689
     569.500  0.5534680E+12       -22.681
     574.500  0.5530430E+12       -22.686
     579.500  0.5526668E+12       -22.682
     584.500  0.5519244E+12       -22.686
     589.500  0.5511014E+12       -22.687
     594.500  0.5506232E+12       -22.682
     599.500  0.5504514E+12       -22.678
     604.500  0.5504997E+12       -22.675
     609.500  0.5501222E+12       -22.682
     614.500  0.5500986E+12       -22.679
     619.500  0.5497242E+12       -22.683
     624.500  0.5490836E+12       -22.681
     629.500  0.5484551E+12       -22.681
     634.500  0.5485922E+12       -22.678
     639.500  0.5485923E+12       -22.674
     644.500  0.5478359E+12       -22.677
     649.500  0.5468912E+12       -22.686
     654.500  0.5470920E+12       -22.681
     659.500  0.5473906E+12       -22.682
     664.500  0.5462540E+12       -22.685
     669.500  0.5462008E+12       -22.681
     674.500  0.5463528E+12       -22.686
     679.500  0.5453382E+12       -22.685
     684.500  0.5441740E+12       -22.692
     689.500  0.5451596E+12       -22.689
     694.500  0.5448582E+12       -22.691
     699.500  0.5453114E+12       -22.688
     704.500  0.5440770E+12       -22.695
     709.500  0.5433994E+12       -22.691
     714.500  0.5431231E+12       -22.686
     719.500  0.5431842E+12       -22.684
     724.500  0.5423024E+12       -22.692
     729.500  0.5423144E+12       -22.695
     734.500  0.5415924E+12       -22.701
     739.500  0.5414244E+12       -22.702
     744.500  0.5407669E+12       -22.706
     749.500  0.5408005E+12       -22.705
     754.500  0.5414033E+12       -22.698
     759.500  0.5407343E+12       -22.697
     764.500  0.5400852E+12       -22.701
     769.500  0.5394632E+12       -22.701
     774.500  0.5394743E+12       -22.698
     779.500  0.5388970E+12       -22.696
     784.500  0.5386932E+12       -22.707
     789.500  0.5382739E+12       -22.704
     794.500  0.5386794E+12       -22.706
     799.500  0.5384945E+12       -22.702
     804.500  0.5379608E+12       -22.703
     809.500  0.5379666E+12       -22.703
     814.500  0.5368178E+12       -22.708
     819.500  0.5377219E+12       -22.709
     824.500  0.5367661E+12       -22.715
     829.500  0.5365982E+12       -22.711
     834.500  0.5365929E+12       -22.705
     839.500  0.5363497E+12       -22.714
     844.500  0.5362324E+12       -22.708
     849.500  0.5357095E+12       -22.707
     854.500  0.5356331E+12       -22.706
     859.500  0.5348926E+12       -22.709
     864.500  0.5347611E+12       -22.706
     869.500  0.5349490E+12       -22.709
     874.500  0.5355888E+12       -22.700
     879.500  0.5339894E+12       -22.709
     884.500  0.5346805E+12       -22.719
     889.500  0.5334657E+12       -22.713
     894.500  0.5342572E+12       -22.707
     899.500  0.5338992E+12       -22.711
     904.500  0.5334019E+12       -22.710
     909.500  0.5328901E+12       -22.709
     914.500  0.5325285E+12       -22.715
     919.500  0.5323088E+12       -22.717
     924.500  0.5320519E+12       -22.724
     929.500  0.5317718E+12       -22.721
     934.500  0.5311339E+12       -22.729
     939.500  0.5315668E+12       -22.723
     944.500  0.5314874E+12       -22.724
     949.500  0.5306902E+12       -22.722
     954.500  0.5314616E+12       -22.719
     959.500  0.5303600E+12       -22.694
     964.500  0.5313052E+12       -22.686
     969.500  0.5302102E+12       -22.701
     974.500  0.5290414E+12       -22.690
     979.500  0.5295602E+12       -22.681
     984.500  0.5292321E+12       -22.687
     989.500  0.5297379E+12       -22.672
     994.500  0.5291686E+12       -22.681
     999.500  0.5299998E+12       -22.676
    1019.500  0.5279901E+12       -22.681
    1039.500  0.5267588E+12       -22.684
    1059.500  0.5262084E+12       -22.695
    1079.500  0.5253503E+12       -22.706
    1099.500  0.5242358E+12       -22.697
    1119.500  0.5236862E+12       -22.713
    1139.500  0.5230318E+12       -22.713
    1159.500  0.5222731E+12       -22.718
    1179.500  0.5215740E+12       -22.719
    1199.500  0.5206383E+12       -22.723
    1219.500  0.5195820E+12       -22.721
    1239.500  0.5187885E+12       -22.727
    1259.500  0.5179543E+12       -22.725
    1279.500  0.5177024E+12       -22.725
    1299.500  0.5170252E+12       -22.728
    1319.500  0.5161113E+12       -22.728
    1339.500  0.5155055E+12       -22.730
    1359.500  0.5149947E+12       -22.730
    1379.500  0.5137443E+12       -22.732
    1399.500  0.5126751E+12       -22.734
    1419.500  0.5122144E+12       -22.735
    1439.500  0.5114589E+12       -22.736
    1459.500  0.5108124E+12       -22.734
    1479.500  0.5106409E+12       -22.735
    1499.500  0.5098251E+12       -22.736
    1519.500  0.5091752E+12       -22.734
    1539.500  0.5085765E+12       -22.733
    1559.500  0.5079297E+12       -22.739
    1579.500  0.5076187E+12       -22.742
    1599.500  0.5068385E+12       -22.745
    1619.500  0.5064566E+12       -22.746
    1639.500  0.5064849E+12       -22.746
    1659.500  0.5058332E+12       -22.748
    1679.500  0.5054389E+12       -22.750
    1699.500  0.5050540E+12       -22.751
    1719.500  0.5043107E+12       -22.754
    1739.500  0.5039720E+12       -22.755
    1759.500  0.5037086E+12       -22.756
    1779.500  0.5034248E+12       -22.758
    1799.500  0.5029827E+12       -22.753
    1819.500  0.5027933E+12       -22.756
    1839.500  0.5022541E+12       -22.758
    1859.500  0.5017721E+12       -22.760
    1879.500  0.5015557E+12       -22.761
    1899.500  0.5013907E+12       -22.764
    1919.500  0.5011064E+12       -22.766
    1939.500  0.5010850E+12       -22.766
    1959.500  0.5005143E+12       -22.769
    1979.500  0.5007692E+12       -22.770
    1999.500  0.5004367E+12       -22.778
    2049.500  0.4994960E+12       -22.784
    2099.500  0.4992220E+12       -22.793
    2149.500  0.4991915E+12       -22.795
    2199.500  0.4984760E+12       -22.798
    2249.500  0.4982175E+12       -22.806
    2299.500  0.4977604E+12       -22.813
    2349.500  0.4981280E+12       -22.812
    2399.500  0.4980514E+12       -22.816
    2449.500  0.4971471E+12       -22.821
    2499.500  0.4973578E+12       -22.822
    2549.500  0.4969856E+12       -22.817
    2599.500  0.4966741E+12       -22.819
    2649.500  0.4963864E+12       -22.825
    2699.500  0.4970878E+12       -22.826
    2749.500  0.4964535E+12       -22.831
    2799.500  0.4970193E+12       -22.833
    2849.500  0.4963704E+12       -22.840
    2899.500  0.4960484E+12       -22.844
    2949.500  0.4959163E+12       -22.847
    2999.500  0.4960852E+12       -22.847
    3049.500  0.4954753E+12       -22.853
    3099.500  0.4955373E+12       -22.855
    3149.500  0.4969447E+12       -22.846
    3199.500  0.4968859E+12       -22.846
    3249.500  0.4960551E+12       -22.849
    3299.500  0.4960310E+12       -22.851
    3349.500  0.4953630E+12       -22.863
    3399.500  0.4955213E+12       -22.856
    3449.500  0.4957788E+12       -22.856
    3499.500  0.4958429E+12       -22.860
    3549.500  0.4958128E+12       -22.855
    3599.500  0.4961881E+12       -22.853
    3649.500  0.4959595E+12       -22.855
    3699.500  0.4961508E+12       -22.858
    3749.500  0.4962890E+12       -22.857
    3799.500  0.4958023E+12       -22.862
    3849.500  0.4961515E+12       -22.863
    3899.500  0.4958812E+12       -22.862
    3949.500  0.4966958E+12       -22.859
    3999.500  0.4965909E+12       -22.858
    4049.500  0.4959674E+12       -22.864
    4099.500  0.4963848E+12       -22.862
    4149.500  0.4958696E+12       -22.863
    4199.500  0.4966605E+12       -22.862
    4249.500  0.4963920E+12       -22.865
    4299.500  0.4970432E+12       -22.860
    4349.500  0.4968128E+12       -22.864
    4399.500  0.4971550E+12       -22.864
    4449.500  0.4968711E+12       -22.867
    4499.500  0.4967372E+12       -22.860
    4549.500  0.4966340E+12       -22.862
    4599.500  0.4965994E+12       -22.860
    4649.500  0.4968717E+12       -22.864
    4699.500  0.4966992E+12       -22.867
    4749.500  0.4969517E+12       -22.867
    4799.500  0.4973183E+12       -22.868
    4849.500  0.4971454E+12       -22.869
    4899.500  0.4972410E+12       -22.866
    4949.500  0.4969099E+12       -22.868
    4999.500  0.4975995E+12       -22.868
    5049.500  0.4977652E+12       -22.866
    5099.500  0.4974842E+12       -22.867
    5149.500  0.4973567E+12       -22.870
    5199.500  0.4973193E+12       -22.868
    5249.500  0.4979704E+12       -22.862
    5299.500  0.4980714E+12       -22.867
    5349.500  0.4978798E+12       -22.869
    5399.500  0.4974548E+12       -22.866
    5449.500  0.4978182E+12       -22.866
    5499.500  0.4979832E+12       -22.865
    5549.500  0.4982467E+12       -22.862
    5599.500  0.4973194E+12       -22.872
    5649.500  0.4980990E+12       -22.869
    5699.500  0.4975994E+12       -22.867
    5749.500  0.4981110E+12       -22.867
    5799.500  0.4977747E+12       -22.865
    5849.500  0.4982047E+12       -22.863
    5899.500  0.4976138E+12       -22.866
    5949.500  0.4991905E+12       -22.862
    5999.500  0.4982183E+12       -22.865
    6049.500  0.4986112E+12       -22.867
    6099.500  0.4980548E+12       -22.868
    6149.500  0.4983890E+12       -22.862
    6199.500  0.4988724E+12       -22.864
    6249.500  0.4983175E+12       -22.869
    6299.500  0.4979880E+12       -22.864
    6349.500  0.4987208E+12       -22.861
    6399.500  0.4983730E+12       -22.861
    6449.500  0.4985091E+12       -22.863
    6499.500  0.4977450E+12       -22.867
    6549.500  0.4987523E+12       -22.865
    6599.500  0.4982958E+12       -22.868
    6649.500  0.4983872E+12       -22.864
    6699.500  0.4991940E+12       -22.863
    6749.500  0.4981360E+12       -22.865
    6799.500  0.4985378E+12       -22.865
    6849.500  0.4983173E+12       -22.868
    6899.500  0.4981507E+12       -22.866
    6949.500  0.4982269E+12       -22.868
    6999.500  0.4993788E+12       -22.861
    7049.500  0.4980687E+12       -22.864
    7099.500  0.4983922E+12       -22.865
    7149.500  0.4983980E+12       -22.865
    7199.500  0.4987041E+12       -22.863
    7249.500  0.4982304E+12       -22.868
    7299.500  0.4982805E+12       -22.868
    7349.500  0.4981926E+12       -22.863
    7399.500  0.4988865E+12       -22.860
    7449.500  0.4981807E+12       -22.866
    7499.500  0.4990114E+12       -22.861
    7549.500  0.4988492E+12       -22.860
    7599.500  0.4985103E+12       -22.864
    7649.500  0.4982615E+12       -22.864
    7699.500  0.4984202E+12       -22.867
    7749.500  0.4982565E+12       -22.867
    7799.500  0.4984562E+12       -22.862
    7849.500  0.4981838E+12       -22.863
    7899.500  0.4988181E+12       -22.864
    7949.500  0.4982078E+12       -22.867
    7999.500  0.4981641E+12       -22.864
    8049.500  0.4986753E+12       -22.862
    8099.500  0.4979957E+12       -22.865
    8149.500  0.4988818E+12       -22.862
    8199.500  0.4989382E+12       -22.859
    8249.500  0.4983514E+12       -22.865
    8299.500  0.4981944E+12       -22.866
    8349.500  0.4981742E+12       -22.864
    8399.500  0.4981529E+12       -22.862
    8449.500  0.4980707E+12       -22.864
    8499.500  0.4981419E+12       -22.867
    8549.500  0.4982796E+12       -22.861
    8599.500  0.4992172E+12       -22.854
    8649.500  0.4983434E+12       -22.861
    8699.500  0.4987505E+12       -22.861
    8749.500  0.4988505E+12       -22.858
    8799.500  0.4989957E+12       -22.859
    8849.500  0.4986278E+12       -22.863
    8899.500  0.4993541E+12       -22.854
    8949.500  0.4981011E+12       -22.866
    8999.500  0.4981033E+12       -22.866
    9049.500  0.4985287E+12       -22.861
    9099.500  0.4981864E+12       -22.868
    9149.500  0.4986467E+12       -22.865
    9199.500  0.4988451E+12       -22.860
    9249.500  0.4980892E+12       -22.864
    9299.500  0.4983971E+12       -22.863
    9349.500  0.4985975E+12       -22.865
    9399.500  0.4985378E+12       -22.868
    9449.500  0.4988803E+12       -22.861
    9499.500  0.4983344E+12       -22.864
    9549.500  0.4984786E+12       -22.866
    9599.500  0.4981182E+12       -22.869
    9649.500  0.4981589E+12       -22.866
    9699.500  0.4982069E+12       -22.864
    9749.500  0.4984077E+12       -22.860
    9799.500  0.4986474E+12       -22.864
    9849.500  0.4986029E+12       -22.863
    9899.500  0.4982014E+12       -22.862
    9949.500  0.4986677E+12       -22.861
    9999.500  0.4984716E+12       -22.866
