 % time (yr) / salinity (o/oo) / _surS (ice-free) (o/oo) / _benS (o/oo) [> 2000 m]  / _surS (o/oo)
       0.500   34.900194   34.904026   34.900080   34.904026
       1.500   34.900238   34.903153   34.900066   34.903153
       2.500   34.900267   34.903164   34.899963   34.903164
       3.500   34.900287   34.903607   34.899820   34.903619
       4.500   34.900305   34.904181   34.899659   34.904190
       5.500   34.900325   34.904895   34.899486   34.904815
       6.500   34.900343   34.905935   34.899308   34.905591
       7.500   34.900359   34.907110   34.899123   34.906521
       8.500   34.900378   34.908345   34.898924   34.907434
       9.500   34.900403   34.909880   34.898709   34.908514
      10.500   34.900431   34.911342   34.898482   34.909440
      11.500   34.900461   34.913057   34.898240   34.910563
      12.500   34.900490   34.915011   34.897982   34.911591
      13.500   34.900515   34.917149   34.897713   34.912821
      14.500   34.900539   34.919385   34.897422   34.914059
      15.500   34.900560   34.921804   34.897126   34.915456
      16.500   34.900576   34.924355   34.896819   34.917001
      17.500   34.900588   34.926978   34.896515   34.918695
      18.500   34.900597   34.929587   34.896210   34.920440
      19.500   34.900604   34.932221   34.895895   34.922240
      21.500   34.900611   34.937668   34.895248   34.926070
      23.500   34.900613   34.943371   34.894551   34.930256
      25.500   34.900614   34.949128   34.893864   34.934572
      27.500   34.900615   34.954225   34.893175   34.938257
      29.500   34.900614   34.958782   34.892491   34.941527
      31.500   34.900614   34.962913   34.891795   34.944518
      33.500   34.900614   34.966672   34.891125   34.947183
      35.500   34.900614   34.970188   34.890464   34.949599
      37.500   34.900614   34.973397   34.889813   34.951813
      39.500   34.900614   34.976136   34.889171   34.953706
      41.500   34.900615   34.978771   34.888537   34.955508
      43.500   34.900615   34.981627   34.887909   34.957442
      45.500   34.900615   34.984573   34.887299   34.959502
      47.500   34.900616   34.987572   34.886708   34.961599
      49.500   34.900617   34.990505   34.886125   34.963703
      51.500   34.900617   34.993315   34.885549   34.965736
      53.500   34.900618   34.996328   34.884980   34.967824
      55.500   34.900619   34.999281   34.884417   34.970006
      57.500   34.900619   35.002212   34.883860   34.972251
      59.500   34.900619   35.005031   34.883309   34.974526
      61.500   34.900619   35.007966   34.882771   34.976822
      63.500   34.900620   35.010899   34.882241   34.979110
      65.500   34.900620   35.013832   34.881723   34.981387
      67.500   34.900620   35.016706   34.881217   34.983619
      69.500   34.900620   35.019404   34.880710   34.985792
      71.500   34.900620   35.022103   34.880209   34.987946
      73.500   34.900620   35.024783   34.879709   34.990048
      75.500   34.900620   35.027357   34.879223   34.992091
      77.500   34.900620   35.029890   34.878749   34.994087
      79.500   34.900620   35.032337   34.878286   34.996013
      81.500   34.900620   35.034687   34.877832   34.997881
      83.500   34.900621   35.036959   34.877386   34.999683
      85.500   34.900621   35.039165   34.876955   35.001411
      87.500   34.900621   35.041236   34.876534   35.003105
      89.500   34.900621   35.043281   34.876120   35.004733
      91.500   34.900621   35.045283   34.875715   35.006300
      93.500   34.900621   35.047246   34.875320   35.007840
      95.500   34.900621   35.049089   34.874934   35.009323
      97.500   34.900621   35.050900   34.874555   35.010736
      99.500   34.900621   35.052615   34.874184   35.012085
     104.500   34.900622   35.056646   34.873293   35.015182
     109.500   34.900622   35.060281   34.872456   35.017898
     114.500   34.900622   35.063595   34.871676   35.020329
     119.500   34.900622   35.066589   34.870946   35.022522
     124.500   34.900622   35.069353   34.870245   35.024515
     129.500   34.900622   35.071748   34.869575   35.026269
     134.500   34.900622   35.073996   34.868931   35.027837
     139.500   34.900621   35.075824   34.868307   35.029225
     144.500   34.900621   35.077587   34.867704   35.030443
     149.500   34.900621   35.079189   34.867112   35.031490
     154.500   34.900621   35.080566   34.866556   35.032361
     159.500   34.900621   35.081884   34.866015   35.033088
     164.500   34.900621   35.082978   34.865490   35.033701
     169.500   34.900622   35.082986   34.865013   35.033168
     174.500   34.900624   35.082489   34.864613   35.031912
     179.500   34.900624   35.082758   34.864236   35.031563
     184.500   34.900624   35.082787   34.863830   35.031109
     189.500   34.900624   35.082870   34.863367   35.030621
     194.500   34.900624   35.082912   34.862879   35.030180
     199.500   34.900624   35.082944   34.862364   35.029745
     204.500   34.900624   35.082874   34.861841   35.029344
     209.500   34.900624   35.082901   34.861304   35.028990
     214.500   34.900624   35.082890   34.860773   35.028634
     219.500   34.900624   35.082868   34.860252   35.028278
     224.500   34.900623   35.082871   34.859741   35.027946
     229.500   34.900623   35.082855   34.859246   35.027599
     234.500   34.900623   35.082741   34.858756   35.027233
     239.500   34.900623   35.082625   34.858283   35.026834
     244.500   34.900623   35.082451   34.857831   35.026417
     249.500   34.900623   35.082291   34.857389   35.025988
     254.500   34.900623   35.082034   34.856952   35.025547
     259.500   34.900623   35.081758   34.856519   35.025044
     264.500   34.900623   35.081476   34.856093   35.024521
     269.500   34.900622   35.081168   34.855671   35.023974
     274.500   34.900622   35.080645   34.855255   35.023419
     279.500   34.900622   35.080236   34.854831   35.022822
     284.500   34.900622   35.079736   34.854428   35.022216
     289.500   34.900622   35.079255   34.854036   35.021579
     294.500   34.900621   35.078709   34.853645   35.020924
     299.500   34.900621   35.078203   34.853260   35.020237
     304.500   34.900621   35.077523   34.852894   35.019491
     309.500   34.900621   35.076980   34.852530   35.018778
     314.500   34.900621   35.076417   34.852177   35.018058
     319.500   34.900622   35.075838   34.851835   35.017325
     324.500   34.900621   35.075139   34.851504   35.016573
     329.500   34.900622   35.074543   34.851185   35.015829
     334.500   34.900622   35.073905   34.850880   35.015076
     339.500   34.900623   35.073343   34.850584   35.014284
     344.500   34.900623   35.072564   34.850304   35.013436
     349.500   34.900623   35.071821   34.850031   35.012615
     354.500   34.900624   35.071159   34.849770   35.011792
     359.500   34.900626   35.070471   34.849525   35.010927
     364.500   34.900627   35.069798   34.849291   35.010078
     369.500   34.900627   35.069014   34.849064   35.009248
     374.500   34.900627   35.068203   34.848853   35.008445
     379.500   34.900628   35.067442   34.848652   35.007638
     384.500   34.900629   35.066758   34.848465   35.006787
     389.500   34.900631   35.066090   34.848289   35.005969
     394.500   34.900633   35.065357   34.848122   35.005133
     399.500   34.900636   35.064586   34.847965   35.004244
     404.500   34.900637   35.063816   34.847816   35.003348
     409.500   34.900641   35.063273   34.847680   35.002527
     414.500   34.900643   35.062463   34.847552   35.001686
     419.500   34.900645   35.061619   34.847434   35.000933
     424.500   34.900648   35.061037   34.847321   35.000102
     429.500   34.900651   35.060282   34.847221   34.999209
     434.500   34.900652   35.059608   34.847122   34.998331
     439.500   34.900652   35.058941   34.847029   34.997639
     444.500   34.900650   35.058115   34.846937   34.997095
     449.500   34.900654   35.057660   34.846858   34.996389
     454.500   34.900655   35.056976   34.846777   34.995616
     459.500   34.900656   35.056360   34.846703   34.994978
     464.500   34.900657   35.055648   34.846633   34.994239
     469.500   34.900659   35.055055   34.846563   34.993557
     474.500   34.900659   35.054398   34.846499   34.992895
     479.500   34.900658   35.053661   34.846431   34.992226
     484.500   34.900658   35.053068   34.846375   34.991566
     489.500   34.900657   35.052290   34.846320   34.990899
     494.500   34.900658   35.051742   34.846278   34.990337
     499.500   34.900658   35.051042   34.846239   34.989696
     504.500   34.900658   35.050586   34.846204   34.989129
     509.500   34.900658   35.049958   34.846177   34.988534
     514.500   34.900659   35.049415   34.846156   34.987981
     519.500   34.900660   35.048824   34.846144   34.987395
     524.500   34.900660   35.048226   34.846133   34.986843
     529.500   34.900663   35.047853   34.846129   34.986356
     534.500   34.900666   35.047346   34.846131   34.985799
     539.500   34.900666   35.046856   34.846137   34.985246
     544.500   34.900668   35.046241   34.846150   34.984673
     549.500   34.900668   35.045654   34.846174   34.984050
     554.500   34.900672   35.045170   34.846209   34.983547
     559.500   34.900672   35.044610   34.846252   34.982952
     564.500   34.900673   35.044072   34.846299   34.982436
     569.500   34.900675   35.043547   34.846355   34.981900
     574.500   34.900674   35.042870   34.846417   34.981310
     579.500   34.900675   35.042421   34.846488   34.980764
     584.500   34.900678   35.041940   34.846568   34.980271
     589.500   34.900680   35.041489   34.846661   34.979740
     594.500   34.900684   35.041082   34.846764   34.979203
     599.500   34.900685   35.040536   34.846869   34.978571
     604.500   34.900686   35.039829   34.846975   34.978046
     609.500   34.900686   35.039339   34.847099   34.977448
     614.500   34.900686   35.038644   34.847228   34.976897
     619.500   34.900689   35.038276   34.847375   34.976440
     624.500   34.900690   35.037710   34.847527   34.975925
     629.500   34.900691   35.037298   34.847695   34.975434
     634.500   34.900693   35.036753   34.847875   34.974909
     639.500   34.900695   35.036193   34.848070   34.974408
     644.500   34.900694   35.035566   34.848266   34.973814
     649.500   34.900699   35.035152   34.848484   34.973375
     654.500   34.900701   35.034600   34.848714   34.972805
     659.500   34.900701   35.034023   34.848949   34.972248
     664.500   34.900703   35.033567   34.849190   34.971756
     669.500   34.900704   35.033076   34.849452   34.971207
     674.500   34.900707   35.032509   34.849727   34.970658
     679.500   34.900709   35.031955   34.850014   34.969982
     684.500   34.900712   35.031472   34.850309   34.969354
     689.500   34.900714   35.030856   34.850615   34.968797
     694.500   34.900713   35.030406   34.850938   34.968382
     699.500   34.900712   35.029881   34.851274   34.967964
     704.500   34.900714   35.029470   34.851626   34.967537
     709.500   34.900719   35.029095   34.851989   34.966946
     714.500   34.900722   35.028510   34.852360   34.966245
     719.500   34.900723   35.027961   34.852741   34.965615
     724.500   34.900726   35.027531   34.853129   34.965105
     729.500   34.900727   35.026925   34.853521   34.964587
     734.500   34.900727   35.026431   34.853924   34.964073
     739.500   34.900729   35.025934   34.854334   34.963519
     744.500   34.900732   35.025494   34.854754   34.963040
     749.500   34.900733   35.024989   34.855182   34.962474
     754.500   34.900735   35.024442   34.855622   34.961957
     759.500   34.900737   35.023968   34.856065   34.961379
     764.500   34.900739   35.023425   34.856509   34.960824
     769.500   34.900741   35.023005   34.856947   34.960265
     774.500   34.900744   35.022526   34.857402   34.959627
     779.500   34.900748   35.021951   34.857854   34.959014
     784.500   34.900749   35.021372   34.858318   34.958536
     789.500   34.900751   35.020986   34.858789   34.957974
     794.500   34.900749   35.020298   34.859257   34.957467
     799.500   34.900750   35.019796   34.859735   34.956989
     804.500   34.900751   35.019289   34.860220   34.956387
     809.500   34.900753   35.018803   34.860717   34.955924
     814.500   34.900755   35.018296   34.861210   34.955377
     819.500   34.900754   35.017687   34.861700   34.954801
     824.500   34.900756   35.017270   34.862195   34.954242
     829.500   34.900760   35.016651   34.862693   34.953652
     834.500   34.900763   35.016297   34.863197   34.953098
     839.500   34.900765   35.015520   34.863708   34.952498
     844.500   34.900769   35.015078   34.864232   34.951877
     849.500   34.900770   35.014626   34.864759   34.951209
     854.500   34.900772   35.013927   34.865276   34.950669
     859.500   34.900774   35.013481   34.865815   34.950002
     864.500   34.900777   35.012880   34.866359   34.949470
     869.500   34.900779   35.012480   34.866912   34.948856
     874.500   34.900778   35.011739   34.867461   34.948163
     879.500   34.900782   35.011235   34.868032   34.947653
     884.500   34.900783   35.010560   34.868607   34.946986
     889.500   34.900785   35.010124   34.869190   34.946408
     894.500   34.900788   35.009415   34.869780   34.945757
     899.500   34.900787   35.008693   34.870367   34.945100
     904.500   34.900790   35.008316   34.870956   34.944581
     909.500   34.900794   35.007728   34.871560   34.943889
     914.500   34.900793   35.006787   34.872168   34.943093
     919.500   34.900798   35.006280   34.872775   34.942489
     924.500   34.900798   35.005454   34.873384   34.941609
     929.500   34.900800   35.005041   34.873995   34.941204
     934.500   34.900804   35.004338   34.874619   34.940577
     939.500   34.900805   35.003701   34.875249   34.939711
     944.500   34.900807   35.003052   34.875881   34.939019
     949.500   34.900810   35.002464   34.876518   34.938426
     954.500   34.900809   35.001697   34.877158   34.937617
     959.500   34.900811   35.001369   34.877805   34.937004
     964.500   34.900812   35.000635   34.878459   34.936324
     969.500   34.900813   35.000060   34.879118   34.935629
     974.500   34.900816   34.999647   34.879783   34.934979
     979.500   34.900817   34.998774   34.880454   34.934201
     984.500   34.900817   34.997906   34.881131   34.933412
     989.500   34.900821   34.997423   34.881813   34.932669
     994.500   34.900823   34.996608   34.882499   34.931916
     999.500   34.900822   34.995694   34.883194   34.931128
    1019.500   34.900830   34.992918   34.885995   34.928188
    1039.500   34.900836   34.989786   34.888866   34.925094
    1059.500   34.900840   34.986553   34.891778   34.921956
    1079.500   34.900847   34.983274   34.894738   34.918737
    1099.500   34.900852   34.979960   34.897736   34.915346
    1119.500   34.900857   34.976307   34.900768   34.911833
    1139.500   34.900861   34.972938   34.903809   34.908359
    1159.500   34.900865   34.969399   34.906831   34.904913
    1179.500   34.900870   34.965854   34.909823   34.901415
    1199.500   34.900874   34.962285   34.912787   34.897970
    1219.500   34.900879   34.958817   34.915694   34.894544
    1239.500   34.900883   34.955260   34.918527   34.891116
    1259.500   34.900885   34.951951   34.921307   34.887841
    1279.500   34.900889   34.948617   34.924039   34.884610
    1299.500   34.900891   34.945326   34.926720   34.881417
    1319.500   34.900894   34.942037   34.929333   34.878145
    1339.500   34.900896   34.938725   34.931843   34.874951
    1359.500   34.900898   34.935643   34.934280   34.871924
    1379.500   34.900901   34.932730   34.936604   34.869031
    1399.500   34.900905   34.929849   34.938824   34.866138
    1419.500   34.900908   34.927066   34.940967   34.863375
    1439.500   34.900909   34.924284   34.943048   34.860652
    1459.500   34.900910   34.921584   34.945082   34.857982
    1479.500   34.900911   34.918888   34.947068   34.855340
    1499.500   34.900912   34.916299   34.948989   34.852779
    1519.500   34.900913   34.913876   34.950867   34.850278
    1539.500   34.900917   34.911409   34.952673   34.847801
    1559.500   34.900918   34.908963   34.954409   34.845378
    1579.500   34.900920   34.906592   34.956060   34.843051
    1599.500   34.900920   34.904330   34.957623   34.840838
    1619.500   34.900920   34.902094   34.959118   34.838682
    1639.500   34.900921   34.900004   34.960564   34.836606
    1659.500   34.900921   34.897960   34.961970   34.834618
    1679.500   34.900921   34.896029   34.963281   34.832735
    1699.500   34.900920   34.894175   34.964512   34.830929
    1719.500   34.900920   34.892415   34.965679   34.829189
    1739.500   34.900921   34.890751   34.966781   34.827547
    1759.500   34.900921   34.889125   34.967823   34.825951
    1779.500   34.900922   34.887603   34.968801   34.824462
    1799.500   34.900924   34.886160   34.969707   34.822922
    1819.500   34.900922   34.884686   34.970505   34.821488
    1839.500   34.900923   34.883179   34.971177   34.819980
    1859.500   34.900923   34.881749   34.971789   34.818563
    1879.500   34.900922   34.880445   34.972357   34.817270
    1899.500   34.900922   34.879261   34.972885   34.816080
    1919.500   34.900922   34.878079   34.973372   34.814965
    1939.500   34.900921   34.877029   34.973830   34.813936
    1959.500   34.900921   34.876116   34.974240   34.812973
    1979.500   34.900920   34.875208   34.974611   34.812061
    1999.500   34.900920   34.874280   34.974942   34.811199
    2049.500   34.900919   34.872222   34.975606   34.809268
    2099.500   34.900917   34.870603   34.976053   34.807675
    2149.500   34.900915   34.869251   34.976300   34.806371
    2199.500   34.900913   34.868170   34.976364   34.805376
    2249.500   34.900911   34.867412   34.976254   34.804647
    2299.500   34.900909   34.866903   34.975985   34.804156
    2349.500   34.900907   34.866608   34.975586   34.803890
    2399.500   34.900904   34.866412   34.975069   34.803776
    2449.500   34.900903   34.866573   34.974448   34.803883
    2499.500   34.900902   34.866824   34.973726   34.804167
    2549.500   34.900900   34.867259   34.972909   34.804566
    2599.500   34.900898   34.867811   34.972020   34.805122
    2649.500   34.900897   34.868479   34.971070   34.805786
    2699.500   34.900895   34.869185   34.970067   34.806506
    2749.500   34.900894   34.870060   34.969040   34.807356
    2799.500   34.900892   34.870787   34.968024   34.808158
    2849.500   34.900890   34.871613   34.967025   34.809067
    2899.500   34.900889   34.872500   34.966042   34.809984
    2949.500   34.900889   34.873473   34.965059   34.810967
    2999.500   34.900888   34.874467   34.964069   34.811969
    3049.500   34.900887   34.875452   34.963092   34.812969
    3099.500   34.900886   34.876404   34.962150   34.813942
    3149.500   34.900886   34.877374   34.961246   34.814913
    3199.500   34.900885   34.878390   34.960387   34.815864
    3249.500   34.900886   34.879309   34.959582   34.816776
    3299.500   34.900886   34.880241   34.958832   34.817678
    3349.500   34.900885   34.881018   34.958145   34.818482
    3399.500   34.900885   34.881829   34.957530   34.819247
    3449.500   34.900885   34.882537   34.956977   34.819939
    3499.500   34.900885   34.883185   34.956486   34.820595
    3549.500   34.900885   34.883791   34.956060   34.821176
    3599.500   34.900885   34.884319   34.955692   34.821688
    3649.500   34.900884   34.884832   34.955370   34.822151
    3699.500   34.900884   34.885151   34.955105   34.822560
    3749.500   34.900885   34.885572   34.954882   34.822919
    3799.500   34.900885   34.885815   34.954698   34.823229
