 % time (yr) / global POM_Fe flux (mol yr-1) / global POM_Fe density (mol m-2 yr-1) / global POM_Fe DOM fraction
       0.500  0.2983249E+08  0.8118183E-07    0.000
       1.500  0.1920417E+08  0.5225948E-07    0.000
       2.500  0.1507994E+08  0.4103637E-07    0.000
       3.500  0.1287343E+08  0.3503191E-07    0.000
       4.500  0.1160418E+08  0.3157794E-07    0.000
       5.500  0.1081621E+08  0.2943367E-07    0.000
       6.500  0.1031280E+08  0.2806378E-07    0.000
       7.500  0.9972828E+07  0.2713862E-07    0.000
       8.500  0.9742784E+07  0.2651261E-07    0.000
       9.500  0.9533756E+07  0.2594379E-07    0.000
      10.500  0.9395921E+07  0.2556871E-07    0.000
      11.500  0.9277160E+07  0.2524553E-07    0.000
      12.500  0.9165423E+07  0.2494146E-07    0.000
      13.500  0.9082629E+07  0.2471616E-07    0.000
      14.500  0.9021533E+07  0.2454990E-07    0.000
      15.500  0.8985904E+07  0.2445295E-07    0.000
      16.500  0.8974731E+07  0.2442254E-07    0.000
      17.500  0.8982276E+07  0.2444307E-07    0.000
      18.500  0.8999343E+07  0.2448951E-07    0.000
      19.500  0.9031926E+07  0.2457818E-07    0.000
      21.500  0.9128900E+07  0.2484207E-07    0.000
      23.500  0.9254316E+07  0.2518336E-07    0.000
      25.500  0.9421925E+07  0.2563947E-07    0.000
      27.500  0.9605658E+07  0.2613946E-07    0.000
      29.500  0.9791060E+07  0.2664398E-07    0.000
      31.500  0.9978711E+07  0.2715463E-07    0.000
      33.500  0.1017225E+08  0.2768129E-07    0.000
      35.500  0.1036329E+08  0.2820117E-07    0.000
      37.500  0.1056543E+08  0.2875124E-07    0.000
      39.500  0.1074721E+08  0.2924590E-07    0.000
      41.500  0.1092998E+08  0.2974328E-07    0.000
      43.500  0.1112495E+08  0.3027383E-07    0.000
      45.500  0.1129599E+08  0.3073928E-07    0.000
      47.500  0.1147795E+08  0.3123445E-07    0.000
      49.500  0.1162581E+08  0.3163681E-07    0.000
      51.500  0.1177344E+08  0.3203855E-07    0.000
      53.500  0.1190800E+08  0.3240471E-07    0.000
      55.500  0.1202492E+08  0.3272287E-07    0.000
      57.500  0.1213073E+08  0.3301083E-07    0.000
      59.500  0.1222920E+08  0.3327879E-07    0.000
      61.500  0.1232246E+08  0.3353258E-07    0.000
      63.500  0.1239703E+08  0.3373550E-07    0.000
      65.500  0.1245431E+08  0.3389135E-07    0.000
      67.500  0.1251057E+08  0.3404445E-07    0.000
      69.500  0.1255068E+08  0.3415362E-07    0.000
      71.500  0.1259383E+08  0.3427103E-07    0.000
      73.500  0.1261675E+08  0.3433339E-07    0.000
      75.500  0.1264934E+08  0.3442208E-07    0.000
      77.500  0.1266503E+08  0.3446478E-07    0.000
      79.500  0.1268920E+08  0.3453056E-07    0.000
      81.500  0.1271364E+08  0.3459706E-07    0.000
      83.500  0.1271924E+08  0.3461231E-07    0.000
      85.500  0.1274418E+08  0.3468017E-07    0.000
      87.500  0.1274998E+08  0.3469596E-07    0.000
      89.500  0.1277449E+08  0.3476267E-07    0.000
      91.500  0.1278508E+08  0.3479148E-07    0.000
      93.500  0.1278293E+08  0.3478563E-07    0.000
      95.500  0.1278571E+08  0.3479318E-07    0.000
      97.500  0.1279428E+08  0.3481650E-07    0.000
      99.500  0.1279478E+08  0.3481787E-07    0.000
     104.500  0.1280182E+08  0.3483704E-07    0.000
     109.500  0.1277537E+08  0.3476504E-07    0.000
     114.500  0.1275101E+08  0.3469877E-07    0.000
     119.500  0.1273288E+08  0.3464941E-07    0.000
     124.500  0.1270114E+08  0.3456305E-07    0.000
     129.500  0.1267200E+08  0.3448376E-07    0.000
     134.500  0.1266153E+08  0.3445525E-07    0.000
     139.500  0.1265279E+08  0.3443148E-07    0.000
     144.500  0.1265738E+08  0.3444396E-07    0.000
     149.500  0.1265943E+08  0.3444956E-07    0.000
     154.500  0.1266896E+08  0.3447548E-07    0.000
     159.500  0.1268135E+08  0.3450920E-07    0.000
     164.500  0.1268463E+08  0.3451813E-07    0.000
     169.500  0.1268807E+08  0.3452750E-07    0.000
     174.500  0.1265012E+08  0.3442420E-07    0.000
     179.500  0.1262022E+08  0.3434285E-07    0.000
     184.500  0.1259379E+08  0.3427094E-07    0.000
     189.500  0.1255882E+08  0.3417576E-07    0.000
     194.500  0.1253819E+08  0.3411962E-07    0.000
     199.500  0.1250886E+08  0.3403980E-07    0.000
     204.500  0.1249505E+08  0.3400224E-07    0.000
     209.500  0.1248395E+08  0.3397203E-07    0.000
     214.500  0.1247029E+08  0.3393485E-07    0.000
     219.500  0.1246040E+08  0.3390795E-07    0.000
     224.500  0.1246167E+08  0.3391140E-07    0.000
     229.500  0.1244935E+08  0.3387786E-07    0.000
     234.500  0.1246890E+08  0.3393108E-07    0.000
     239.500  0.1246075E+08  0.3390890E-07    0.000
     244.500  0.1246746E+08  0.3392716E-07    0.000
     249.500  0.1248293E+08  0.3396925E-07    0.000
     254.500  0.1250895E+08  0.3404006E-07    0.000
     259.500  0.1254745E+08  0.3414482E-07    0.000
     264.500  0.1256415E+08  0.3419026E-07    0.000
     269.500  0.1259582E+08  0.3427646E-07    0.000
     274.500  0.1261517E+08  0.3432910E-07    0.000
     279.500  0.1266497E+08  0.3446463E-07    0.000
     284.500  0.1269005E+08  0.3453288E-07    0.000
     289.500  0.1273533E+08  0.3465610E-07    0.000
     294.500  0.1276959E+08  0.3474932E-07    0.000
     299.500  0.1282013E+08  0.3488687E-07    0.000
     304.500  0.1285688E+08  0.3498685E-07    0.000
     309.500  0.1290360E+08  0.3511399E-07    0.000
     314.500  0.1294266E+08  0.3522028E-07    0.000
     319.500  0.1300005E+08  0.3537647E-07    0.000
     324.500  0.1305633E+08  0.3552961E-07    0.000
     329.500  0.1312495E+08  0.3571634E-07    0.000
     334.500  0.1317723E+08  0.3585861E-07    0.000
     339.500  0.1322584E+08  0.3599089E-07    0.000
     344.500  0.1328929E+08  0.3616356E-07    0.000
     349.500  0.1334837E+08  0.3632434E-07    0.000
     354.500  0.1342198E+08  0.3652465E-07    0.000
     359.500  0.1347358E+08  0.3666505E-07    0.000
     364.500  0.1352470E+08  0.3680416E-07    0.000
     369.500  0.1358986E+08  0.3698148E-07    0.000
     374.500  0.1365079E+08  0.3714730E-07    0.000
     379.500  0.1372336E+08  0.3734478E-07    0.000
     384.500  0.1377847E+08  0.3749473E-07    0.000
     389.500  0.1381366E+08  0.3759051E-07    0.000
     394.500  0.1386293E+08  0.3772458E-07    0.000
     399.500  0.1389759E+08  0.3781889E-07    0.000
     404.500  0.1394663E+08  0.3795234E-07    0.000
     409.500  0.1397770E+08  0.3803690E-07    0.000
     414.500  0.1402615E+08  0.3816874E-07    0.000
     419.500  0.1409356E+08  0.3835219E-07    0.000
     424.500  0.1413753E+08  0.3847185E-07    0.000
     429.500  0.1418031E+08  0.3858825E-07    0.000
     434.500  0.1421250E+08  0.3867586E-07    0.000
     439.500  0.1423335E+08  0.3873258E-07    0.000
     444.500  0.1427300E+08  0.3884048E-07    0.000
     449.500  0.1429585E+08  0.3890266E-07    0.000
     454.500  0.1432661E+08  0.3898636E-07    0.000
     459.500  0.1435362E+08  0.3905986E-07    0.000
     464.500  0.1439333E+08  0.3916794E-07    0.000
     469.500  0.1438971E+08  0.3915809E-07    0.000
     474.500  0.1441778E+08  0.3923447E-07    0.000
     479.500  0.1443710E+08  0.3928703E-07    0.000
     484.500  0.1446425E+08  0.3936094E-07    0.000
     489.500  0.1448083E+08  0.3940604E-07    0.000
     494.500  0.1449233E+08  0.3943733E-07    0.000
     499.500  0.1450763E+08  0.3947898E-07    0.000
     504.500  0.1452351E+08  0.3952219E-07    0.000
     509.500  0.1453302E+08  0.3954808E-07    0.000
     514.500  0.1455963E+08  0.3962048E-07    0.000
     519.500  0.1456615E+08  0.3963821E-07    0.000
     524.500  0.1459775E+08  0.3972421E-07    0.000
     529.500  0.1458449E+08  0.3968813E-07    0.000
     534.500  0.1459231E+08  0.3970941E-07    0.000
     539.500  0.1461241E+08  0.3976412E-07    0.000
     544.500  0.1461160E+08  0.3976191E-07    0.000
     549.500  0.1462885E+08  0.3980885E-07    0.000
     554.500  0.1462748E+08  0.3980511E-07    0.000
     559.500  0.1465861E+08  0.3988983E-07    0.000
     564.500  0.1466093E+08  0.3989615E-07    0.000
     569.500  0.1467809E+08  0.3994283E-07    0.000
     574.500  0.1468418E+08  0.3995942E-07    0.000
     579.500  0.1469490E+08  0.3998858E-07    0.000
     584.500  0.1468301E+08  0.3995624E-07    0.000
     589.500  0.1468213E+08  0.3995382E-07    0.000
     594.500  0.1467301E+08  0.3992903E-07    0.000
     599.500  0.1469353E+08  0.3998486E-07    0.000
     604.500  0.1471891E+08  0.4005393E-07    0.000
     609.500  0.1472533E+08  0.4007140E-07    0.000
     614.500  0.1472456E+08  0.4006930E-07    0.000
     619.500  0.1472115E+08  0.4006003E-07    0.000
     624.500  0.1472555E+08  0.4007198E-07    0.000
     629.500  0.1472180E+08  0.4006178E-07    0.000
     634.500  0.1473124E+08  0.4008748E-07    0.000
     639.500  0.1474180E+08  0.4011621E-07    0.000
     644.500  0.1475359E+08  0.4014828E-07    0.000
     649.500  0.1475121E+08  0.4014181E-07    0.000
     654.500  0.1475694E+08  0.4015740E-07    0.000
     659.500  0.1477044E+08  0.4019414E-07    0.000
     664.500  0.1476783E+08  0.4018705E-07    0.000
     669.500  0.1476564E+08  0.4018109E-07    0.000
     674.500  0.1478520E+08  0.4023432E-07    0.000
     679.500  0.1477485E+08  0.4020616E-07    0.000
     684.500  0.1477020E+08  0.4019350E-07    0.000
     689.500  0.1479400E+08  0.4025827E-07    0.000
     694.500  0.1479802E+08  0.4026919E-07    0.000
     699.500  0.1480952E+08  0.4030050E-07    0.000
     704.500  0.1479929E+08  0.4027264E-07    0.000
     709.500  0.1479985E+08  0.4027418E-07    0.000
     714.500  0.1479232E+08  0.4025368E-07    0.000
     719.500  0.1481514E+08  0.4031580E-07    0.000
     724.500  0.1479601E+08  0.4026374E-07    0.000
     729.500  0.1482122E+08  0.4033235E-07    0.000
     734.500  0.1482994E+08  0.4035607E-07    0.000
     739.500  0.1482668E+08  0.4034720E-07    0.000
     744.500  0.1483316E+08  0.4036483E-07    0.000
     749.500  0.1484137E+08  0.4038718E-07    0.000
     754.500  0.1483767E+08  0.4037709E-07    0.000
     759.500  0.1484749E+08  0.4040383E-07    0.000
     764.500  0.1484288E+08  0.4039128E-07    0.000
     769.500  0.1482895E+08  0.4035338E-07    0.000
     774.500  0.1483409E+08  0.4036737E-07    0.000
     779.500  0.1483808E+08  0.4037822E-07    0.000
     784.500  0.1488223E+08  0.4049836E-07    0.000
     789.500  0.1484514E+08  0.4039741E-07    0.000
     794.500  0.1486222E+08  0.4044390E-07    0.000
     799.500  0.1486198E+08  0.4044326E-07    0.000
     804.500  0.1487977E+08  0.4049166E-07    0.000
     809.500  0.1489344E+08  0.4052887E-07    0.000
     814.500  0.1487266E+08  0.4047230E-07    0.000
     819.500  0.1489354E+08  0.4052913E-07    0.000
     824.500  0.1488212E+08  0.4049806E-07    0.000
     829.500  0.1489987E+08  0.4054637E-07    0.000
     834.500  0.1489928E+08  0.4054475E-07    0.000
     839.500  0.1489984E+08  0.4054627E-07    0.000
     844.500  0.1491973E+08  0.4060042E-07    0.000
     849.500  0.1490472E+08  0.4055955E-07    0.000
     854.500  0.1491188E+08  0.4057904E-07    0.000
     859.500  0.1489258E+08  0.4052651E-07    0.000
     864.500  0.1489857E+08  0.4054282E-07    0.000
     869.500  0.1492328E+08  0.4061007E-07    0.000
     874.500  0.1492598E+08  0.4061741E-07    0.000
     879.500  0.1491892E+08  0.4059820E-07    0.000
     884.500  0.1494902E+08  0.4068012E-07    0.000
     889.500  0.1493778E+08  0.4064952E-07    0.000
     894.500  0.1493770E+08  0.4064931E-07    0.000
     899.500  0.1494693E+08  0.4067443E-07    0.000
     904.500  0.1493523E+08  0.4064257E-07    0.000
     909.500  0.1494034E+08  0.4065649E-07    0.000
     914.500  0.1493211E+08  0.4063410E-07    0.000
     919.500  0.1495339E+08  0.4069201E-07    0.000
     924.500  0.1496867E+08  0.4073358E-07    0.000
     929.500  0.1495534E+08  0.4069732E-07    0.000
     934.500  0.1497982E+08  0.4076392E-07    0.000
     939.500  0.1496951E+08  0.4073586E-07    0.000
     944.500  0.1497037E+08  0.4073820E-07    0.000
     949.500  0.1495147E+08  0.4068677E-07    0.000
     954.500  0.1497216E+08  0.4074309E-07    0.000
     959.500  0.1495647E+08  0.4070037E-07    0.000
     964.500  0.1496317E+08  0.4071862E-07    0.000
     969.500  0.1498356E+08  0.4077409E-07    0.000
     974.500  0.1493677E+08  0.4064677E-07    0.000
     979.500  0.1491695E+08  0.4059283E-07    0.000
     984.500  0.1492928E+08  0.4062639E-07    0.000
     989.500  0.1491644E+08  0.4059146E-07    0.000
     994.500  0.1493994E+08  0.4065539E-07    0.000
     999.500  0.1495183E+08  0.4068776E-07    0.000
    1019.500  0.1494476E+08  0.4066852E-07    0.000
    1039.500  0.1496074E+08  0.4071200E-07    0.000
    1059.500  0.1500390E+08  0.4082946E-07    0.000
    1079.500  0.1504167E+08  0.4093224E-07    0.000
    1099.500  0.1501522E+08  0.4086025E-07    0.000
    1119.500  0.1505841E+08  0.4097779E-07    0.000
    1139.500  0.1505066E+08  0.4095669E-07    0.000
    1159.500  0.1507653E+08  0.4102709E-07    0.000
    1179.500  0.1509045E+08  0.4106497E-07    0.000
    1199.500  0.1510751E+08  0.4111141E-07    0.000
    1219.500  0.1511919E+08  0.4114319E-07    0.000
    1239.500  0.1514782E+08  0.4122109E-07    0.000
    1259.500  0.1515653E+08  0.4124480E-07    0.000
    1279.500  0.1517893E+08  0.4130576E-07    0.000
    1299.500  0.1521995E+08  0.4141738E-07    0.000
    1319.500  0.1522073E+08  0.4141949E-07    0.000
    1339.500  0.1525237E+08  0.4150560E-07    0.000
    1359.500  0.1527463E+08  0.4156619E-07    0.000
    1379.500  0.1530360E+08  0.4164503E-07    0.000
    1399.500  0.1531837E+08  0.4168521E-07    0.000
    1419.500  0.1535724E+08  0.4179097E-07    0.000
    1439.500  0.1538758E+08  0.4187354E-07    0.000
    1459.500  0.1540764E+08  0.4192813E-07    0.000
    1479.500  0.1545047E+08  0.4204467E-07    0.000
    1499.500  0.1547721E+08  0.4211745E-07    0.000
    1519.500  0.1548350E+08  0.4213456E-07    0.000
    1539.500  0.1551443E+08  0.4221873E-07    0.000
    1559.500  0.1553341E+08  0.4227040E-07    0.000
    1579.500  0.1557561E+08  0.4238523E-07    0.000
    1599.500  0.1560668E+08  0.4246976E-07    0.000
    1619.500  0.1564853E+08  0.4258366E-07    0.000
    1639.500  0.1567273E+08  0.4264952E-07    0.000
    1659.500  0.1570502E+08  0.4273738E-07    0.000
    1679.500  0.1573514E+08  0.4281934E-07    0.000
    1699.500  0.1577069E+08  0.4291607E-07    0.000
    1719.500  0.1580437E+08  0.4300773E-07    0.000
    1739.500  0.1582093E+08  0.4305281E-07    0.000
    1759.500  0.1586717E+08  0.4317862E-07    0.000
    1779.500  0.1588846E+08  0.4323656E-07    0.000
    1799.500  0.1589026E+08  0.4324147E-07    0.000
    1819.500  0.1591769E+08  0.4331610E-07    0.000
    1839.500  0.1594232E+08  0.4338312E-07    0.000
    1859.500  0.1596355E+08  0.4344089E-07    0.000
    1879.500  0.1599870E+08  0.4353656E-07    0.000
    1899.500  0.1602762E+08  0.4361527E-07    0.000
    1919.500  0.1605960E+08  0.4370229E-07    0.000
    1939.500  0.1607834E+08  0.4375327E-07    0.000
    1959.500  0.1609864E+08  0.4380853E-07    0.000
    1979.500  0.1613538E+08  0.4390850E-07    0.000
    1999.500  0.1618105E+08  0.4403279E-07    0.000
    2049.500  0.1624723E+08  0.4421288E-07    0.000
    2099.500  0.1631119E+08  0.4438693E-07    0.000
    2149.500  0.1637919E+08  0.4457198E-07    0.000
    2199.500  0.1642705E+08  0.4470220E-07    0.000
    2249.500  0.1649020E+08  0.4487407E-07    0.000
    2299.500  0.1655446E+08  0.4504891E-07    0.000
    2349.500  0.1662258E+08  0.4523429E-07    0.000
    2399.500  0.1667255E+08  0.4537029E-07    0.000
    2449.500  0.1670769E+08  0.4546589E-07    0.000
    2499.500  0.1676313E+08  0.4561676E-07    0.000
    2549.500  0.1678848E+08  0.4568574E-07    0.000
    2599.500  0.1683296E+08  0.4580678E-07    0.000
    2649.500  0.1687167E+08  0.4591214E-07    0.000
    2699.500  0.1691365E+08  0.4602636E-07    0.000
    2749.500  0.1695273E+08  0.4613271E-07    0.000
    2799.500  0.1699605E+08  0.4625059E-07    0.000
    2849.500  0.1702845E+08  0.4633877E-07    0.000
    2899.500  0.1705751E+08  0.4641786E-07    0.000
    2949.500  0.1709917E+08  0.4653121E-07    0.000
    2999.500  0.1710819E+08  0.4655578E-07    0.000
    3049.500  0.1713218E+08  0.4662106E-07    0.000
    3099.500  0.1715452E+08  0.4668184E-07    0.000
    3149.500  0.1717650E+08  0.4674166E-07    0.000
    3199.500  0.1719284E+08  0.4678613E-07    0.000
    3249.500  0.1719402E+08  0.4678934E-07    0.000
    3299.500  0.1721565E+08  0.4684819E-07    0.000
    3349.500  0.1721218E+08  0.4683874E-07    0.000
    3399.500  0.1721375E+08  0.4684302E-07    0.000
    3449.500  0.1722180E+08  0.4686494E-07    0.000
    3499.500  0.1723131E+08  0.4689080E-07    0.000
    3549.500  0.1721785E+08  0.4685417E-07    0.000
    3599.500  0.1721845E+08  0.4685580E-07    0.000
    3649.500  0.1721680E+08  0.4685132E-07    0.000
    3699.500  0.1722405E+08  0.4687105E-07    0.000
    3749.500  0.1721263E+08  0.4683997E-07    0.000
    3799.500  0.1721248E+08  0.4683957E-07    0.000
    3849.500  0.1723825E+08  0.4690968E-07    0.000
    3899.500  0.1720859E+08  0.4682897E-07    0.000
    3949.500  0.1722960E+08  0.4688616E-07    0.000
    3999.500  0.1722277E+08  0.4686755E-07    0.000
    4049.500  0.1721474E+08  0.4684570E-07    0.000
    4099.500  0.1723008E+08  0.4688745E-07    0.000
    4149.500  0.1720473E+08  0.4681848E-07    0.000
    4199.500  0.1722132E+08  0.4686361E-07    0.000
    4249.500  0.1720996E+08  0.4683271E-07    0.000
    4299.500  0.1721197E+08  0.4683818E-07    0.000
    4349.500  0.1721323E+08  0.4684160E-07    0.000
    4399.500  0.1721873E+08  0.4685657E-07    0.000
    4449.500  0.1719642E+08  0.4679586E-07    0.000
    4499.500  0.1719263E+08  0.4678555E-07    0.000
    4549.500  0.1719572E+08  0.4679397E-07    0.000
    4599.500  0.1718180E+08  0.4675608E-07    0.000
    4649.500  0.1717282E+08  0.4673164E-07    0.000
    4699.500  0.1717257E+08  0.4673097E-07    0.000
    4749.500  0.1717782E+08  0.4674525E-07    0.000
    4799.500  0.1717845E+08  0.4674697E-07    0.000
    4849.500  0.1717092E+08  0.4672647E-07    0.000
    4899.500  0.1716096E+08  0.4669937E-07    0.000
    4949.500  0.1715432E+08  0.4668130E-07    0.000
    4999.500  0.1715725E+08  0.4668927E-07    0.000
    5049.500  0.1715349E+08  0.4667905E-07    0.000
    5099.500  0.1715206E+08  0.4667514E-07    0.000
    5149.500  0.1715306E+08  0.4667785E-07    0.000
    5199.500  0.1714362E+08  0.4665218E-07    0.000
    5249.500  0.1713054E+08  0.4661658E-07    0.000
    5299.500  0.1713891E+08  0.4663936E-07    0.000
    5349.500  0.1713236E+08  0.4662153E-07    0.000
    5399.500  0.1711782E+08  0.4658196E-07    0.000
    5449.500  0.1711686E+08  0.4657936E-07    0.000
    5499.500  0.1710695E+08  0.4655238E-07    0.000
    5549.500  0.1710811E+08  0.4655555E-07    0.000
    5599.500  0.1710360E+08  0.4654326E-07    0.000
    5649.500  0.1711585E+08  0.4657662E-07    0.000
    5699.500  0.1708863E+08  0.4650253E-07    0.000
    5749.500  0.1709850E+08  0.4652940E-07    0.000
    5799.500  0.1708820E+08  0.4650137E-07    0.000
    5849.500  0.1707468E+08  0.4646458E-07    0.000
    5899.500  0.1706664E+08  0.4644270E-07    0.000
    5949.500  0.1709210E+08  0.4651197E-07    0.000
    5999.500  0.1708930E+08  0.4650437E-07    0.000
    6049.500  0.1709269E+08  0.4651358E-07    0.000
    6099.500  0.1707721E+08  0.4647146E-07    0.000
    6149.500  0.1707187E+08  0.4645693E-07    0.000
    6199.500  0.1707351E+08  0.4646140E-07    0.000
    6249.500  0.1706358E+08  0.4643437E-07    0.000
    6299.500  0.1705533E+08  0.4641192E-07    0.000
    6349.500  0.1706467E+08  0.4643735E-07    0.000
    6399.500  0.1705715E+08  0.4641687E-07    0.000
    6449.500  0.1705961E+08  0.4642356E-07    0.000
    6499.500  0.1705015E+08  0.4639783E-07    0.000
    6549.500  0.1705857E+08  0.4642072E-07    0.000
    6599.500  0.1706203E+08  0.4643014E-07    0.000
