 % time (yr) / global POFe flux (mol yr-1) / global POFe density (mol m-2 yr-1) / global POFe DOM fraction
       0.500  0.4292547E+10  0.1168112E-04    0.665
       1.500  0.4773038E+10  0.1298866E-04    0.667
       2.500  0.4598462E+10  0.1251359E-04    0.670
       3.500  0.4332267E+10  0.1178921E-04    0.675
       4.500  0.4096090E+10  0.1114651E-04    0.680
       5.500  0.3911441E+10  0.1064403E-04    0.683
       6.500  0.3763020E+10  0.1024014E-04    0.686
       7.500  0.3633647E+10  0.9888085E-05    0.688
       8.500  0.3519659E+10  0.9577893E-05    0.690
       9.500  0.3407448E+10  0.9272538E-05    0.692
      10.500  0.3312117E+10  0.9013119E-05    0.693
      11.500  0.3225875E+10  0.8778432E-05    0.694
      12.500  0.3145629E+10  0.8560063E-05    0.696
      13.500  0.3073476E+10  0.8363715E-05    0.697
      14.500  0.3008146E+10  0.8185935E-05    0.698
      15.500  0.2952332E+10  0.8034051E-05    0.699
      16.500  0.2902497E+10  0.7898438E-05    0.700
      17.500  0.2861276E+10  0.7786265E-05    0.701
      18.500  0.2827408E+10  0.7694102E-05    0.701
      19.500  0.2798058E+10  0.7614233E-05    0.702
      21.500  0.2756102E+10  0.7500060E-05    0.703
      23.500  0.2728445E+10  0.7424796E-05    0.703
      25.500  0.2710416E+10  0.7375735E-05    0.704
      27.500  0.2696344E+10  0.7337441E-05    0.704
      29.500  0.2682416E+10  0.7299540E-05    0.705
      31.500  0.2668056E+10  0.7260464E-05    0.705
      33.500  0.2653509E+10  0.7220876E-05    0.705
      35.500  0.2638876E+10  0.7181058E-05    0.705
      37.500  0.2623685E+10  0.7139719E-05    0.706
      39.500  0.2608855E+10  0.7099363E-05    0.706
      41.500  0.2594932E+10  0.7061473E-05    0.706
      43.500  0.2580973E+10  0.7023487E-05    0.707
      45.500  0.2568564E+10  0.6989720E-05    0.707
      47.500  0.2557483E+10  0.6959566E-05    0.707
      49.500  0.2548493E+10  0.6935102E-05    0.708
      51.500  0.2538194E+10  0.6907076E-05    0.708
      53.500  0.2531925E+10  0.6890017E-05    0.708
      55.500  0.2526638E+10  0.6875630E-05    0.708
      57.500  0.2522305E+10  0.6863839E-05    0.708
      59.500  0.2518986E+10  0.6854805E-05    0.708
      61.500  0.2516335E+10  0.6847593E-05    0.708
      63.500  0.2514527E+10  0.6842671E-05    0.708
      65.500  0.2512852E+10  0.6838113E-05    0.708
      67.500  0.2511499E+10  0.6834432E-05    0.709
      69.500  0.2510123E+10  0.6830686E-05    0.709
      71.500  0.2509246E+10  0.6828301E-05    0.709
      73.500  0.2509330E+10  0.6828530E-05    0.709
      75.500  0.2508986E+10  0.6827594E-05    0.709
      77.500  0.2508998E+10  0.6827625E-05    0.709
      79.500  0.2508837E+10  0.6827187E-05    0.709
      81.500  0.2508611E+10  0.6826572E-05    0.709
      83.500  0.2508953E+10  0.6827503E-05    0.709
      85.500  0.2509060E+10  0.6827796E-05    0.709
      87.500  0.2508949E+10  0.6827492E-05    0.709
      89.500  0.2508708E+10  0.6826837E-05    0.709
      91.500  0.2509358E+10  0.6828605E-05    0.709
      93.500  0.2509319E+10  0.6828500E-05    0.709
      95.500  0.2509151E+10  0.6828042E-05    0.709
      97.500  0.2509302E+10  0.6828454E-05    0.709
      99.500  0.2509210E+10  0.6828204E-05    0.709
     104.500  0.2509737E+10  0.6829636E-05    0.709
     109.500  0.2510532E+10  0.6831799E-05    0.709
     114.500  0.2512025E+10  0.6835863E-05    0.709
     119.500  0.2513570E+10  0.6840067E-05    0.709
     124.500  0.2515166E+10  0.6844410E-05    0.709
     129.500  0.2517118E+10  0.6849721E-05    0.709
     134.500  0.2518604E+10  0.6853766E-05    0.709
     139.500  0.2520120E+10  0.6857892E-05    0.709
     144.500  0.2521504E+10  0.6861657E-05    0.709
     149.500  0.2523354E+10  0.6866691E-05    0.709
     154.500  0.2524847E+10  0.6870756E-05    0.709
     159.500  0.2526370E+10  0.6874899E-05    0.709
     164.500  0.2529654E+10  0.6883836E-05    0.709
     169.500  0.2531081E+10  0.6887719E-05    0.709
     174.500  0.2530490E+10  0.6886112E-05    0.709
     179.500  0.2531502E+10  0.6888866E-05    0.709
     184.500  0.2531900E+10  0.6889947E-05    0.709
     189.500  0.2532684E+10  0.6892082E-05    0.709
     194.500  0.2533785E+10  0.6895076E-05    0.709
     199.500  0.2535093E+10  0.6898636E-05    0.709
     204.500  0.2536937E+10  0.6903656E-05    0.709
     209.500  0.2538035E+10  0.6906643E-05    0.709
     214.500  0.2539968E+10  0.6911902E-05    0.709
     219.500  0.2541347E+10  0.6915656E-05    0.709
     224.500  0.2543084E+10  0.6920382E-05    0.709
     229.500  0.2544623E+10  0.6924571E-05    0.709
     234.500  0.2546063E+10  0.6928489E-05    0.709
     239.500  0.2547670E+10  0.6932861E-05    0.709
     244.500  0.2548757E+10  0.6935821E-05    0.709
     249.500  0.2550111E+10  0.6939505E-05    0.709
     254.500  0.2550089E+10  0.6939445E-05    0.709
     259.500  0.2550768E+10  0.6941293E-05    0.709
     264.500  0.2551076E+10  0.6942129E-05    0.709
     269.500  0.2551351E+10  0.6942878E-05    0.709
     274.500  0.2552458E+10  0.6945891E-05    0.709
     279.500  0.2552036E+10  0.6944744E-05    0.709
     284.500  0.2552360E+10  0.6945626E-05    0.709
     289.500  0.2552271E+10  0.6945384E-05    0.709
     294.500  0.2551790E+10  0.6944074E-05    0.709
     299.500  0.2551047E+10  0.6942053E-05    0.709
     304.500  0.2551613E+10  0.6943592E-05    0.709
     309.500  0.2550805E+10  0.6941394E-05    0.709
     314.500  0.2548574E+10  0.6935323E-05    0.709
     319.500  0.2547310E+10  0.6931882E-05    0.709
     324.500  0.2548017E+10  0.6933806E-05    0.709
     329.500  0.2548770E+10  0.6935857E-05    0.709
     334.500  0.2547354E+10  0.6932001E-05    0.709
     339.500  0.2543493E+10  0.6921497E-05    0.709
     344.500  0.2544755E+10  0.6924929E-05    0.709
     349.500  0.2543725E+10  0.6922126E-05    0.709
     354.500  0.2541881E+10  0.6917109E-05    0.709
     359.500  0.2541466E+10  0.6915978E-05    0.709
     364.500  0.2538475E+10  0.6907841E-05    0.709
     369.500  0.2539889E+10  0.6911687E-05    0.709
     374.500  0.2537967E+10  0.6906459E-05    0.709
     379.500  0.2537149E+10  0.6904233E-05    0.709
     384.500  0.2536329E+10  0.6902000E-05    0.709
     389.500  0.2532057E+10  0.6890375E-05    0.709
     394.500  0.2533861E+10  0.6895284E-05    0.709
     399.500  0.2530603E+10  0.6886418E-05    0.709
     404.500  0.2531232E+10  0.6888130E-05    0.709
     409.500  0.2527620E+10  0.6878302E-05    0.709
     414.500  0.2525983E+10  0.6873845E-05    0.709
     419.500  0.2526139E+10  0.6874270E-05    0.709
     424.500  0.2521417E+10  0.6861421E-05    0.709
     429.500  0.2520029E+10  0.6857645E-05    0.709
     434.500  0.2520139E+10  0.6857944E-05    0.709
     439.500  0.2520113E+10  0.6857872E-05    0.709
     444.500  0.2516237E+10  0.6847324E-05    0.709
     449.500  0.2515759E+10  0.6846025E-05    0.709
     454.500  0.2512977E+10  0.6838453E-05    0.709
     459.500  0.2511484E+10  0.6834390E-05    0.709
     464.500  0.2510529E+10  0.6831791E-05    0.709
     469.500  0.2510470E+10  0.6831632E-05    0.709
     474.500  0.2510498E+10  0.6831708E-05    0.710
     479.500  0.2506953E+10  0.6822061E-05    0.710
     484.500  0.2507150E+10  0.6822596E-05    0.710
     489.500  0.2507319E+10  0.6823058E-05    0.710
     494.500  0.2502725E+10  0.6810557E-05    0.710
     499.500  0.2503141E+10  0.6811687E-05    0.710
     504.500  0.2499677E+10  0.6802261E-05    0.710
     509.500  0.2498572E+10  0.6799253E-05    0.710
     514.500  0.2497509E+10  0.6796361E-05    0.710
     519.500  0.2497384E+10  0.6796020E-05    0.710
     524.500  0.2496300E+10  0.6793072E-05    0.710
     529.500  0.2493119E+10  0.6784416E-05    0.710
     534.500  0.2490771E+10  0.6778024E-05    0.710
     539.500  0.2488650E+10  0.6772254E-05    0.710
     544.500  0.2487296E+10  0.6768568E-05    0.710
     549.500  0.2488981E+10  0.6773156E-05    0.710
     554.500  0.2483837E+10  0.6759156E-05    0.710
     559.500  0.2484879E+10  0.6761991E-05    0.710
     564.500  0.2481095E+10  0.6751694E-05    0.710
     569.500  0.2483148E+10  0.6757281E-05    0.710
     574.500  0.2480755E+10  0.6750769E-05    0.710
     579.500  0.2480598E+10  0.6750341E-05    0.710
     584.500  0.2476798E+10  0.6740001E-05    0.710
     589.500  0.2475262E+10  0.6735822E-05    0.710
     594.500  0.2472474E+10  0.6728236E-05    0.710
     599.500  0.2472646E+10  0.6728702E-05    0.710
     604.500  0.2473509E+10  0.6731052E-05    0.710
     609.500  0.2471705E+10  0.6726141E-05    0.710
     614.500  0.2472104E+10  0.6727227E-05    0.710
     619.500  0.2469996E+10  0.6721491E-05    0.710
     624.500  0.2468709E+10  0.6717990E-05    0.710
     629.500  0.2465123E+10  0.6708230E-05    0.710
     634.500  0.2464983E+10  0.6707849E-05    0.710
     639.500  0.2464928E+10  0.6707699E-05    0.710
     644.500  0.2463553E+10  0.6703957E-05    0.710
     649.500  0.2459759E+10  0.6693634E-05    0.710
     654.500  0.2460189E+10  0.6694803E-05    0.710
     659.500  0.2461195E+10  0.6697541E-05    0.710
     664.500  0.2456821E+10  0.6685640E-05    0.710
     669.500  0.2456079E+10  0.6683619E-05    0.710
     674.500  0.2457912E+10  0.6688609E-05    0.710
     679.500  0.2454267E+10  0.6678689E-05    0.710
     684.500  0.2450616E+10  0.6668752E-05    0.710
     689.500  0.2453894E+10  0.6677673E-05    0.710
     694.500  0.2451012E+10  0.6669832E-05    0.710
     699.500  0.2452321E+10  0.6673393E-05    0.710
     704.500  0.2449161E+10  0.6664794E-05    0.710
     709.500  0.2446354E+10  0.6657155E-05    0.710
     714.500  0.2446834E+10  0.6658461E-05    0.710
     719.500  0.2445831E+10  0.6655732E-05    0.710
     724.500  0.2443296E+10  0.6648834E-05    0.710
     729.500  0.2443820E+10  0.6650259E-05    0.710
     734.500  0.2441796E+10  0.6644751E-05    0.710
     739.500  0.2440211E+10  0.6640440E-05    0.710
     744.500  0.2438090E+10  0.6634667E-05    0.710
     749.500  0.2438168E+10  0.6634879E-05    0.710
     754.500  0.2438320E+10  0.6635293E-05    0.710
     759.500  0.2438527E+10  0.6635855E-05    0.710
     764.500  0.2436274E+10  0.6629725E-05    0.710
     769.500  0.2433355E+10  0.6621782E-05    0.710
     774.500  0.2434399E+10  0.6624624E-05    0.710
     779.500  0.2432776E+10  0.6620206E-05    0.710
     784.500  0.2431375E+10  0.6616394E-05    0.710
     789.500  0.2428453E+10  0.6608442E-05    0.710
     794.500  0.2429862E+10  0.6612277E-05    0.710
     799.500  0.2428248E+10  0.6607885E-05    0.710
     804.500  0.2427325E+10  0.6605373E-05    0.710
     809.500  0.2426603E+10  0.6603408E-05    0.710
     814.500  0.2424057E+10  0.6596479E-05    0.710
     819.500  0.2426252E+10  0.6602452E-05    0.711
     824.500  0.2423729E+10  0.6595587E-05    0.711
     829.500  0.2424069E+10  0.6596512E-05    0.711
     834.500  0.2422104E+10  0.6591165E-05    0.711
     839.500  0.2420167E+10  0.6585895E-05    0.711
     844.500  0.2421270E+10  0.6588897E-05    0.711
     849.500  0.2416890E+10  0.6576977E-05    0.711
     854.500  0.2418819E+10  0.6582226E-05    0.711
     859.500  0.2416696E+10  0.6576448E-05    0.711
     864.500  0.2414600E+10  0.6570744E-05    0.711
     869.500  0.2415870E+10  0.6574202E-05    0.711
     874.500  0.2414706E+10  0.6571032E-05    0.711
     879.500  0.2412362E+10  0.6564654E-05    0.711
     884.500  0.2412720E+10  0.6565628E-05    0.711
     889.500  0.2409442E+10  0.6556708E-05    0.711
     894.500  0.2411653E+10  0.6562726E-05    0.711
     899.500  0.2411153E+10  0.6561366E-05    0.711
     904.500  0.2408809E+10  0.6554985E-05    0.711
     909.500  0.2408023E+10  0.6552848E-05    0.711
     914.500  0.2405160E+10  0.6545057E-05    0.711
     919.500  0.2405322E+10  0.6545497E-05    0.711
     924.500  0.2403537E+10  0.6540640E-05    0.711
     929.500  0.2402519E+10  0.6537869E-05    0.711
     934.500  0.2400498E+10  0.6532370E-05    0.711
     939.500  0.2403703E+10  0.6541091E-05    0.711
     944.500  0.2402243E+10  0.6537117E-05    0.711
     949.500  0.2399965E+10  0.6530919E-05    0.711
     954.500  0.2401365E+10  0.6534729E-05    0.711
     959.500  0.2399057E+10  0.6528449E-05    0.711
     964.500  0.2399514E+10  0.6529693E-05    0.711
     969.500  0.2397838E+10  0.6525132E-05    0.711
     974.500  0.2391721E+10  0.6508485E-05    0.711
     979.500  0.2394894E+10  0.6517120E-05    0.711
     984.500  0.2392984E+10  0.6511922E-05    0.711
     989.500  0.2393434E+10  0.6513148E-05    0.711
     994.500  0.2391358E+10  0.6507496E-05    0.711
     999.500  0.2393003E+10  0.6511974E-05    0.711
    1019.500  0.2386938E+10  0.6495469E-05    0.711
    1039.500  0.2381542E+10  0.6480785E-05    0.711
    1059.500  0.2379952E+10  0.6476457E-05    0.711
    1079.500  0.2375507E+10  0.6464362E-05    0.711
    1099.500  0.2370981E+10  0.6452046E-05    0.711
    1119.500  0.2368364E+10  0.6444925E-05    0.711
    1139.500  0.2365899E+10  0.6438217E-05    0.712
    1159.500  0.2363737E+10  0.6432332E-05    0.712
    1179.500  0.2360259E+10  0.6422869E-05    0.712
    1199.500  0.2357248E+10  0.6414676E-05    0.712
    1219.500  0.2352863E+10  0.6402743E-05    0.712
    1239.500  0.2349768E+10  0.6394321E-05    0.712
    1259.500  0.2346736E+10  0.6386069E-05    0.712
    1279.500  0.2346637E+10  0.6385800E-05    0.712
    1299.500  0.2344240E+10  0.6379276E-05    0.712
    1319.500  0.2340855E+10  0.6370065E-05    0.712
    1339.500  0.2339433E+10  0.6366197E-05    0.712
    1359.500  0.2339186E+10  0.6365524E-05    0.712
    1379.500  0.2334055E+10  0.6351561E-05    0.712
    1399.500  0.2329692E+10  0.6339689E-05    0.712
    1419.500  0.2329067E+10  0.6337989E-05    0.712
    1439.500  0.2326097E+10  0.6329904E-05    0.712
    1459.500  0.2324437E+10  0.6325387E-05    0.712
    1479.500  0.2323654E+10  0.6323257E-05    0.712
    1499.500  0.2321776E+10  0.6318148E-05    0.712
    1519.500  0.2318677E+10  0.6309715E-05    0.713
    1539.500  0.2317163E+10  0.6305595E-05    0.713
    1559.500  0.2314516E+10  0.6298389E-05    0.713
    1579.500  0.2315052E+10  0.6299849E-05    0.713
    1599.500  0.2313172E+10  0.6294732E-05    0.713
    1619.500  0.2312022E+10  0.6291605E-05    0.713
    1639.500  0.2311232E+10  0.6289453E-05    0.713
    1659.500  0.2308922E+10  0.6283167E-05    0.713
    1679.500  0.2308822E+10  0.6282897E-05    0.713
    1699.500  0.2307202E+10  0.6278486E-05    0.713
    1719.500  0.2304889E+10  0.6272193E-05    0.713
    1739.500  0.2304574E+10  0.6271337E-05    0.713
    1759.500  0.2303427E+10  0.6268215E-05    0.713
    1779.500  0.2303394E+10  0.6268125E-05    0.713
    1799.500  0.2301389E+10  0.6262668E-05    0.713
    1819.500  0.2301115E+10  0.6261922E-05    0.713
    1839.500  0.2299560E+10  0.6257691E-05    0.713
    1859.500  0.2299312E+10  0.6257016E-05    0.713
    1879.500  0.2298354E+10  0.6254408E-05    0.713
    1899.500  0.2297511E+10  0.6252116E-05    0.713
    1919.500  0.2298608E+10  0.6255100E-05    0.713
    1939.500  0.2297626E+10  0.6252429E-05    0.713
    1959.500  0.2295134E+10  0.6245647E-05    0.713
    1979.500  0.2296213E+10  0.6248582E-05    0.713
    1999.500  0.2295561E+10  0.6246809E-05    0.713
    2049.500  0.2292364E+10  0.6238110E-05    0.713
    2099.500  0.2291625E+10  0.6236099E-05    0.713
    2149.500  0.2292564E+10  0.6238653E-05    0.713
    2199.500  0.2290154E+10  0.6232096E-05    0.713
    2249.500  0.2290354E+10  0.6232640E-05    0.713
    2299.500  0.2289060E+10  0.6229118E-05    0.713
    2349.500  0.2290267E+10  0.6232402E-05    0.713
    2399.500  0.2290813E+10  0.6233888E-05    0.713
    2449.500  0.2288354E+10  0.6227197E-05    0.713
    2499.500  0.2289749E+10  0.6230993E-05    0.713
    2549.500  0.2289393E+10  0.6230024E-05    0.713
    2599.500  0.2288674E+10  0.6228067E-05    0.713
    2649.500  0.2287789E+10  0.6225661E-05    0.713
    2699.500  0.2290168E+10  0.6232134E-05    0.713
    2749.500  0.2288873E+10  0.6228610E-05    0.713
    2799.500  0.2290368E+10  0.6232679E-05    0.713
    2849.500  0.2288568E+10  0.6227779E-05    0.713
    2899.500  0.2288085E+10  0.6226466E-05    0.713
    2949.500  0.2287814E+10  0.6225726E-05    0.713
    2999.500  0.2288730E+10  0.6228221E-05    0.713
    3049.500  0.2286671E+10  0.6222617E-05    0.713
    3099.500  0.2287160E+10  0.6223947E-05    0.713
    3149.500  0.2291374E+10  0.6235417E-05    0.713
    3199.500  0.2290693E+10  0.6233562E-05    0.713
    3249.500  0.2289987E+10  0.6231640E-05    0.713
    3299.500  0.2289993E+10  0.6231657E-05    0.713
    3349.500  0.2286821E+10  0.6223027E-05    0.713
    3399.500  0.2286913E+10  0.6223275E-05    0.713
    3449.500  0.2289401E+10  0.6230045E-05    0.713
    3499.500  0.2288452E+10  0.6227463E-05    0.713
    3549.500  0.2289641E+10  0.6230699E-05    0.713
    3599.500  0.2289160E+10  0.6229390E-05    0.713
    3649.500  0.2289421E+10  0.6230100E-05    0.713
    3699.500  0.2290080E+10  0.6231893E-05    0.713
    3749.500  0.2289445E+10  0.6230166E-05    0.713
    3799.500  0.2288501E+10  0.6227597E-05    0.713
    3849.500  0.2289447E+10  0.6230171E-05    0.713
    3899.500  0.2288086E+10  0.6226469E-05    0.713
    3949.500  0.2289371E+10  0.6229964E-05    0.713
    3999.500  0.2289745E+10  0.6230983E-05    0.713
    4049.500  0.2287919E+10  0.6226014E-05    0.713
    4099.500  0.2291215E+10  0.6234982E-05    0.713
    4149.500  0.2288133E+10  0.6226597E-05    0.713
    4199.500  0.2291019E+10  0.6234449E-05    0.713
    4249.500  0.2289575E+10  0.6230519E-05    0.713
    4299.500  0.2291895E+10  0.6236832E-05    0.713
    4349.500  0.2292187E+10  0.6237628E-05    0.713
    4399.500  0.2292641E+10  0.6238863E-05    0.713
    4449.500  0.2291727E+10  0.6236375E-05    0.713
    4499.500  0.2290370E+10  0.6232684E-05    0.713
    4549.500  0.2290822E+10  0.6233912E-05    0.713
    4599.500  0.2291271E+10  0.6235134E-05    0.713
    4649.500  0.2290772E+10  0.6233778E-05    0.713
    4699.500  0.2289688E+10  0.6230828E-05    0.713
    4749.500  0.2292247E+10  0.6237791E-05    0.713
    4799.500  0.2292227E+10  0.6237736E-05    0.713
    4849.500  0.2291782E+10  0.6236524E-05    0.713
    4899.500  0.2291277E+10  0.6235151E-05    0.713
    4949.500  0.2291135E+10  0.6234766E-05    0.713
    4999.500  0.2292753E+10  0.6239168E-05    0.713
    5049.500  0.2293874E+10  0.6242219E-05    0.713
    5099.500  0.2293035E+10  0.6239934E-05    0.713
    5149.500  0.2291952E+10  0.6236989E-05    0.713
    5199.500  0.2292119E+10  0.6237444E-05    0.713
    5249.500  0.2292503E+10  0.6238489E-05    0.713
    5299.500  0.2293690E+10  0.6241718E-05    0.713
    5349.500  0.2293197E+10  0.6240376E-05    0.713
    5399.500  0.2291531E+10  0.6235841E-05    0.713
    5449.500  0.2294022E+10  0.6242622E-05    0.713
    5499.500  0.2294305E+10  0.6243391E-05    0.713
    5549.500  0.2294583E+10  0.6244147E-05    0.713
    5599.500  0.2290899E+10  0.6234122E-05    0.712
    5649.500  0.2293650E+10  0.6241610E-05    0.712
    5699.500  0.2292100E+10  0.6237390E-05    0.712
    5749.500  0.2294601E+10  0.6244196E-05    0.713
    5799.500  0.2292454E+10  0.6238354E-05    0.712
    5849.500  0.2293215E+10  0.6240425E-05    0.713
    5899.500  0.2291350E+10  0.6235349E-05    0.712
    5949.500  0.2296473E+10  0.6249291E-05    0.713
    5999.500  0.2294984E+10  0.6245238E-05    0.713
    6049.500  0.2294988E+10  0.6245251E-05    0.712
    6099.500  0.2293714E+10  0.6241782E-05    0.712
    6149.500  0.2295408E+10  0.6246392E-05    0.713
    6199.500  0.2295343E+10  0.6246217E-05    0.713
    6249.500  0.2294481E+10  0.6243871E-05    0.712
    6299.500  0.2292998E+10  0.6239833E-05    0.712
    6349.500  0.2296158E+10  0.6248434E-05    0.713
    6399.500  0.2293757E+10  0.6241899E-05    0.712
    6449.500  0.2295593E+10  0.6246897E-05    0.712
    6499.500  0.2291832E+10  0.6236661E-05    0.712
    6549.500  0.2295953E+10  0.6247877E-05    0.713
    6599.500  0.2294285E+10  0.6243337E-05    0.712
