 % time (yr) / global POM_Fe flux (mol yr-1) / global POM_Fe density (mol m-2 yr-1)
       0.500  0.7813873E+09  0.2126355E-05
       1.500  0.8451097E+09  0.2299760E-05
       2.500  0.8402439E+09  0.2286519E-05
       3.500  0.8150135E+09  0.2217860E-05
       4.500  0.7863220E+09  0.2139783E-05
       5.500  0.7631681E+09  0.2076776E-05
       6.500  0.7447005E+09  0.2026521E-05
       7.500  0.7286175E+09  0.1982755E-05
       8.500  0.7141497E+09  0.1943384E-05
       9.500  0.7000040E+09  0.1904890E-05
      10.500  0.6876425E+09  0.1871251E-05
      11.500  0.6764986E+09  0.1840926E-05
      12.500  0.6659081E+09  0.1812106E-05
      13.500  0.6562913E+09  0.1785937E-05
      14.500  0.6474192E+09  0.1761793E-05
      15.500  0.6397691E+09  0.1740975E-05
      16.500  0.6330188E+09  0.1722606E-05
      17.500  0.6274117E+09  0.1707348E-05
      18.500  0.6228032E+09  0.1694807E-05
      19.500  0.6190637E+09  0.1684631E-05
      21.500  0.6143189E+09  0.1671719E-05
      23.500  0.6120952E+09  0.1665668E-05
      25.500  0.6119126E+09  0.1665171E-05
      27.500  0.6125608E+09  0.1666935E-05
      29.500  0.6134036E+09  0.1669228E-05
      31.500  0.6143120E+09  0.1671700E-05
      33.500  0.6151342E+09  0.1673938E-05
      35.500  0.6158618E+09  0.1675918E-05
      37.500  0.6163718E+09  0.1677306E-05
      39.500  0.6167835E+09  0.1678426E-05
      41.500  0.6172006E+09  0.1679561E-05
      43.500  0.6175892E+09  0.1680618E-05
      45.500  0.6181527E+09  0.1682152E-05
      47.500  0.6189970E+09  0.1684449E-05
      49.500  0.6199845E+09  0.1687137E-05
      51.500  0.6210606E+09  0.1690065E-05
      53.500  0.6224725E+09  0.1693907E-05
      55.500  0.6241320E+09  0.1698423E-05
      57.500  0.6259092E+09  0.1703259E-05
      59.500  0.6278173E+09  0.1708451E-05
      61.500  0.6297838E+09  0.1713803E-05
      63.500  0.6317763E+09  0.1719225E-05
      65.500  0.6337744E+09  0.1724662E-05
      67.500  0.6357570E+09  0.1730057E-05
      69.500  0.6376638E+09  0.1735246E-05
      71.500  0.6396340E+09  0.1740608E-05
      73.500  0.6416580E+09  0.1746116E-05
      75.500  0.6436673E+09  0.1751583E-05
      77.500  0.6456197E+09  0.1756897E-05
      79.500  0.6475340E+09  0.1762106E-05
      81.500  0.6494486E+09  0.1767316E-05
      83.500  0.6512996E+09  0.1772353E-05
      85.500  0.6531221E+09  0.1777312E-05
      87.500  0.6548262E+09  0.1781950E-05
      89.500  0.6566615E+09  0.1786944E-05
      91.500  0.6583946E+09  0.1791660E-05
      93.500  0.6601017E+09  0.1796306E-05
      95.500  0.6616324E+09  0.1800471E-05
      97.500  0.6632499E+09  0.1804873E-05
      99.500  0.6648341E+09  0.1809184E-05
     104.500  0.6688488E+09  0.1820109E-05
     109.500  0.6727708E+09  0.1830782E-05
     114.500  0.6766925E+09  0.1841453E-05
     119.500  0.6805701E+09  0.1852005E-05
     124.500  0.6843289E+09  0.1862234E-05
     129.500  0.6879651E+09  0.1872129E-05
     134.500  0.6914308E+09  0.1881560E-05
     139.500  0.6948146E+09  0.1890768E-05
     144.500  0.6980899E+09  0.1899681E-05
     149.500  0.7012785E+09  0.1908358E-05
     154.500  0.7043707E+09  0.1916773E-05
     159.500  0.7074593E+09  0.1925178E-05
     164.500  0.7104882E+09  0.1933420E-05
     169.500  0.7136051E+09  0.1941902E-05
     174.500  0.7164869E+09  0.1949744E-05
     179.500  0.7189765E+09  0.1956519E-05
     184.500  0.7215959E+09  0.1963647E-05
     189.500  0.7239267E+09  0.1969990E-05
     194.500  0.7262013E+09  0.1976180E-05
     199.500  0.7283589E+09  0.1982051E-05
     204.500  0.7305705E+09  0.1988069E-05
     209.500  0.7325997E+09  0.1993591E-05
     214.500  0.7346521E+09  0.1999176E-05
     219.500  0.7366015E+09  0.2004481E-05
     224.500  0.7385735E+09  0.2009848E-05
     229.500  0.7404751E+09  0.2015022E-05
     234.500  0.7423323E+09  0.2020076E-05
     239.500  0.7440891E+09  0.2024857E-05
     244.500  0.7456566E+09  0.2029122E-05
     249.500  0.7472704E+09  0.2033514E-05
     254.500  0.7488314E+09  0.2037762E-05
     259.500  0.7504012E+09  0.2042034E-05
     264.500  0.7519307E+09  0.2046196E-05
     269.500  0.7533672E+09  0.2050105E-05
     274.500  0.7550057E+09  0.2054564E-05
     279.500  0.7564993E+09  0.2058628E-05
     284.500  0.7580330E+09  0.2062802E-05
     289.500  0.7594138E+09  0.2066559E-05
     294.500  0.7607904E+09  0.2070305E-05
     299.500  0.7620654E+09  0.2073775E-05
     304.500  0.7633917E+09  0.2077384E-05
     309.500  0.7646358E+09  0.2080770E-05
     314.500  0.7656294E+09  0.2083474E-05
     319.500  0.7665598E+09  0.2086005E-05
     324.500  0.7679281E+09  0.2089729E-05
     329.500  0.7690538E+09  0.2092792E-05
     334.500  0.7699856E+09  0.2095328E-05
     339.500  0.7704897E+09  0.2096700E-05
     344.500  0.7717675E+09  0.2100177E-05
     349.500  0.7726460E+09  0.2102568E-05
     354.500  0.7735443E+09  0.2105012E-05
     359.500  0.7743853E+09  0.2107301E-05
     364.500  0.7749200E+09  0.2108756E-05
     369.500  0.7760991E+09  0.2111964E-05
     374.500  0.7768448E+09  0.2113993E-05
     379.500  0.7775735E+09  0.2115977E-05
     384.500  0.7784521E+09  0.2118367E-05
     389.500  0.7788609E+09  0.2119480E-05
     394.500  0.7797278E+09  0.2121839E-05
     399.500  0.7801610E+09  0.2123018E-05
     404.500  0.7809595E+09  0.2125191E-05
     409.500  0.7811549E+09  0.2125722E-05
     414.500  0.7817570E+09  0.2127361E-05
     419.500  0.7826278E+09  0.2129730E-05
     424.500  0.7828735E+09  0.2130399E-05
     429.500  0.7833992E+09  0.2131830E-05
     434.500  0.7840683E+09  0.2133650E-05
     439.500  0.7842396E+09  0.2134117E-05
     444.500  0.7848150E+09  0.2135683E-05
     449.500  0.7850684E+09  0.2136372E-05
     454.500  0.7854526E+09  0.2137418E-05
     459.500  0.7857012E+09  0.2138094E-05
     464.500  0.7861249E+09  0.2139247E-05
     469.500  0.7864255E+09  0.2140065E-05
     474.500  0.7866979E+09  0.2140806E-05
     479.500  0.7869826E+09  0.2141581E-05
     484.500  0.7873497E+09  0.2142580E-05
     489.500  0.7876568E+09  0.2143416E-05
     494.500  0.7877566E+09  0.2143687E-05
     499.500  0.7880872E+09  0.2144587E-05
     504.500  0.7881137E+09  0.2144659E-05
     509.500  0.7883591E+09  0.2145327E-05
     514.500  0.7887115E+09  0.2146286E-05
     519.500  0.7890740E+09  0.2147272E-05
     524.500  0.7892980E+09  0.2147882E-05
     529.500  0.7890533E+09  0.2147216E-05
     534.500  0.7890334E+09  0.2147162E-05
     539.500  0.7892639E+09  0.2147789E-05
     544.500  0.7894631E+09  0.2148331E-05
     549.500  0.7900287E+09  0.2149870E-05
     554.500  0.7899012E+09  0.2149523E-05
     559.500  0.7904195E+09  0.2150934E-05
     564.500  0.7903988E+09  0.2150877E-05
     569.500  0.7909910E+09  0.2152489E-05
     574.500  0.7911106E+09  0.2152814E-05
     579.500  0.7911998E+09  0.2153057E-05
     584.500  0.7910288E+09  0.2152592E-05
     589.500  0.7912314E+09  0.2153143E-05
     594.500  0.7910163E+09  0.2152558E-05
     599.500  0.7914015E+09  0.2153606E-05
     604.500  0.7919637E+09  0.2155136E-05
     609.500  0.7920807E+09  0.2155454E-05
     614.500  0.7924484E+09  0.2156455E-05
     619.500  0.7924262E+09  0.2156394E-05
     624.500  0.7925596E+09  0.2156758E-05
     629.500  0.7924059E+09  0.2156339E-05
     634.500  0.7926348E+09  0.2156962E-05
     639.500  0.7928150E+09  0.2157452E-05
     644.500  0.7929637E+09  0.2157857E-05
     649.500  0.7929681E+09  0.2157869E-05
     654.500  0.7931284E+09  0.2158305E-05
     659.500  0.7935626E+09  0.2159487E-05
     664.500  0.7933617E+09  0.2158940E-05
     669.500  0.7934289E+09  0.2159123E-05
     674.500  0.7940251E+09  0.2160745E-05
     679.500  0.7937761E+09  0.2160068E-05
     684.500  0.7936552E+09  0.2159739E-05
     689.500  0.7941930E+09  0.2161203E-05
     694.500  0.7941506E+09  0.2161087E-05
     699.500  0.7945574E+09  0.2162194E-05
     704.500  0.7944542E+09  0.2161913E-05
     709.500  0.7943058E+09  0.2161509E-05
     714.500  0.7944559E+09  0.2161918E-05
     719.500  0.7946884E+09  0.2162551E-05
     724.500  0.7945938E+09  0.2162293E-05
     729.500  0.7949272E+09  0.2163201E-05
     734.500  0.7950163E+09  0.2163443E-05
     739.500  0.7950516E+09  0.2163539E-05
     744.500  0.7951745E+09  0.2163873E-05
     749.500  0.7954677E+09  0.2164671E-05
     754.500  0.7955955E+09  0.2165019E-05
     759.500  0.7957133E+09  0.2165340E-05
     764.500  0.7956778E+09  0.2165243E-05
     769.500  0.7955670E+09  0.2164941E-05
     774.500  0.7956511E+09  0.2165170E-05
     779.500  0.7956034E+09  0.2165041E-05
     784.500  0.7962552E+09  0.2166814E-05
     789.500  0.7957971E+09  0.2165568E-05
     794.500  0.7961828E+09  0.2166617E-05
     799.500  0.7962590E+09  0.2166825E-05
     804.500  0.7963778E+09  0.2167148E-05
     809.500  0.7965543E+09  0.2167628E-05
     814.500  0.7963277E+09  0.2167012E-05
     819.500  0.7966299E+09  0.2167834E-05
     824.500  0.7965719E+09  0.2167676E-05
     829.500  0.7969603E+09  0.2168733E-05
     834.500  0.7968407E+09  0.2168408E-05
     839.500  0.7970314E+09  0.2168927E-05
     844.500  0.7974087E+09  0.2169953E-05
     849.500  0.7971219E+09  0.2169173E-05
     854.500  0.7974058E+09  0.2169945E-05
     859.500  0.7971225E+09  0.2169174E-05
     864.500  0.7970771E+09  0.2169051E-05
     869.500  0.7972831E+09  0.2169611E-05
     874.500  0.7973551E+09  0.2169807E-05
     879.500  0.7973665E+09  0.2169838E-05
     884.500  0.7977313E+09  0.2170831E-05
     889.500  0.7975547E+09  0.2170351E-05
     894.500  0.7977589E+09  0.2170906E-05
     899.500  0.7981852E+09  0.2172066E-05
     904.500  0.7977925E+09  0.2170998E-05
     909.500  0.7976932E+09  0.2170727E-05
     914.500  0.7977046E+09  0.2170758E-05
     919.500  0.7981371E+09  0.2171935E-05
     924.500  0.7982461E+09  0.2172232E-05
     929.500  0.7981822E+09  0.2172058E-05
     934.500  0.7984694E+09  0.2172840E-05
     939.500  0.7985780E+09  0.2173135E-05
     944.500  0.7984841E+09  0.2172880E-05
     949.500  0.7982978E+09  0.2172373E-05
     954.500  0.7986241E+09  0.2173261E-05
     959.500  0.7985742E+09  0.2173125E-05
     964.500  0.7986757E+09  0.2173401E-05
     969.500  0.7988015E+09  0.2173743E-05
     974.500  0.7978163E+09  0.2171062E-05
     979.500  0.7980939E+09  0.2171818E-05
     984.500  0.7981822E+09  0.2172058E-05
     989.500  0.7980810E+09  0.2171783E-05
     994.500  0.7982255E+09  0.2172176E-05
     999.500  0.7985559E+09  0.2173075E-05
    1019.500  0.7983123E+09  0.2172412E-05
    1039.500  0.7983098E+09  0.2172405E-05
    1059.500  0.7988478E+09  0.2173869E-05
    1079.500  0.7991203E+09  0.2174611E-05
    1099.500  0.7985832E+09  0.2173149E-05
    1119.500  0.7991120E+09  0.2174588E-05
    1139.500  0.7988005E+09  0.2173741E-05
    1159.500  0.7991962E+09  0.2174817E-05
    1179.500  0.7993900E+09  0.2175345E-05
    1199.500  0.7996514E+09  0.2176056E-05
    1219.500  0.7995359E+09  0.2175742E-05
    1239.500  0.8000423E+09  0.2177120E-05
    1259.500  0.8002419E+09  0.2177663E-05
    1279.500  0.8007888E+09  0.2179151E-05
    1299.500  0.8012778E+09  0.2180482E-05
    1319.500  0.8014313E+09  0.2180900E-05
    1339.500  0.8020326E+09  0.2182536E-05
    1359.500  0.8025648E+09  0.2183984E-05
    1379.500  0.8027785E+09  0.2184566E-05
    1399.500  0.8030950E+09  0.2185427E-05
    1419.500  0.8038932E+09  0.2187599E-05
    1439.500  0.8042796E+09  0.2188651E-05
    1459.500  0.8048532E+09  0.2190212E-05
    1479.500  0.8055984E+09  0.2192239E-05
    1499.500  0.8061940E+09  0.2193860E-05
    1519.500  0.8062720E+09  0.2194073E-05
    1539.500  0.8067716E+09  0.2195432E-05
    1559.500  0.8073794E+09  0.2197086E-05
    1579.500  0.8082550E+09  0.2199469E-05
    1599.500  0.8088752E+09  0.2201157E-05
    1619.500  0.8095611E+09  0.2203023E-05
    1639.500  0.8101908E+09  0.2204736E-05
    1659.500  0.8107576E+09  0.2206279E-05
    1679.500  0.8115855E+09  0.2208532E-05
    1699.500  0.8121504E+09  0.2210069E-05
    1719.500  0.8126878E+09  0.2211532E-05
    1739.500  0.8134112E+09  0.2213500E-05
    1759.500  0.8140312E+09  0.2215187E-05
    1779.500  0.8148031E+09  0.2217288E-05
    1799.500  0.8149154E+09  0.2217593E-05
    1819.500  0.8155633E+09  0.2219356E-05
    1839.500  0.8160492E+09  0.2220679E-05
    1859.500  0.8168301E+09  0.2222804E-05
    1879.500  0.8174824E+09  0.2224579E-05
    1899.500  0.8181078E+09  0.2226281E-05
    1919.500  0.8191611E+09  0.2229147E-05
    1939.500  0.8196179E+09  0.2230390E-05
    1959.500  0.8200230E+09  0.2231492E-05
    1979.500  0.8208244E+09  0.2233673E-05
    1999.500  0.8216489E+09  0.2235917E-05
    2049.500  0.8229437E+09  0.2239440E-05
    2099.500  0.8243051E+09  0.2243145E-05
    2149.500  0.8256780E+09  0.2246881E-05
    2199.500  0.8265493E+09  0.2249252E-05
    2249.500  0.8277894E+09  0.2252627E-05
    2299.500  0.8290394E+09  0.2256028E-05
    2349.500  0.8299059E+09  0.2258386E-05
    2399.500  0.8309641E+09  0.2261266E-05
    2449.500  0.8315232E+09  0.2262787E-05
    2499.500  0.8323430E+09  0.2265018E-05
    2549.500  0.8327717E+09  0.2266185E-05
    2599.500  0.8333994E+09  0.2267893E-05
    2649.500  0.8339190E+09  0.2269307E-05
    2699.500  0.8346990E+09  0.2271430E-05
    2749.500  0.8350938E+09  0.2272504E-05
    2799.500  0.8358714E+09  0.2274620E-05
    2849.500  0.8361547E+09  0.2275391E-05
    2899.500  0.8364592E+09  0.2276220E-05
    2949.500  0.8367755E+09  0.2277080E-05
    2999.500  0.8370473E+09  0.2277820E-05
    3049.500  0.8371913E+09  0.2278212E-05
    3099.500  0.8374137E+09  0.2278817E-05
    3149.500  0.8379029E+09  0.2280148E-05
    3199.500  0.8380085E+09  0.2280436E-05
    3249.500  0.8380832E+09  0.2280639E-05
    3299.500  0.8382020E+09  0.2280962E-05
    3349.500  0.8381136E+09  0.2280722E-05
    3399.500  0.8380502E+09  0.2280549E-05
    3449.500  0.8383525E+09  0.2281372E-05
    3499.500  0.8383583E+09  0.2281388E-05
    3549.500  0.8382736E+09  0.2281157E-05
    3599.500  0.8379937E+09  0.2280395E-05
    3649.500  0.8380651E+09  0.2280590E-05
    3699.500  0.8384060E+09  0.2281517E-05
    3749.500  0.8380916E+09  0.2280662E-05
    3799.500  0.8383460E+09  0.2281354E-05
    3849.500  0.8385935E+09  0.2282028E-05
    3899.500  0.8379929E+09  0.2280393E-05
    3949.500  0.8383375E+09  0.2281331E-05
    3999.500  0.8382131E+09  0.2280992E-05
    4049.500  0.8381376E+09  0.2280787E-05
    4099.500  0.8384708E+09  0.2281694E-05
    4149.500  0.8381650E+09  0.2280862E-05
    4199.500  0.8384023E+09  0.2281507E-05
    4249.500  0.8381942E+09  0.2280941E-05
    4299.500  0.8383360E+09  0.2281327E-05
    4349.500  0.8384210E+09  0.2281558E-05
    4399.500  0.8386061E+09  0.2282062E-05
    4449.500  0.8385634E+09  0.2281946E-05
    4499.500  0.8383522E+09  0.2281371E-05
    4549.500  0.8383528E+09  0.2281372E-05
    4599.500  0.8384995E+09  0.2281772E-05
    4649.500  0.8383437E+09  0.2281348E-05
    4699.500  0.8383031E+09  0.2281237E-05
    4749.500  0.8387249E+09  0.2282385E-05
    4799.500  0.8387072E+09  0.2282337E-05
    4849.500  0.8386416E+09  0.2282158E-05
    4899.500  0.8385291E+09  0.2281852E-05
    4949.500  0.8386293E+09  0.2282125E-05
    4999.500  0.8387413E+09  0.2282430E-05
    5049.500  0.8388112E+09  0.2282620E-05
    5099.500  0.8387552E+09  0.2282468E-05
    5149.500  0.8387200E+09  0.2282372E-05
    5199.500  0.8387219E+09  0.2282377E-05
    5249.500  0.8385271E+09  0.2281847E-05
    5299.500  0.8388587E+09  0.2282749E-05
    5349.500  0.8388026E+09  0.2282597E-05
    5399.500  0.8386013E+09  0.2282049E-05
    5449.500  0.8388394E+09  0.2282697E-05
    5499.500  0.8386871E+09  0.2282282E-05
    5549.500  0.8386862E+09  0.2282280E-05
    5599.500  0.8385152E+09  0.2281815E-05
    5649.500  0.8387643E+09  0.2282492E-05
    5699.500  0.8384977E+09  0.2281767E-05
    5749.500  0.8387634E+09  0.2282490E-05
    5799.500  0.8385024E+09  0.2281780E-05
    5849.500  0.8383536E+09  0.2281375E-05
    5899.500  0.8381974E+09  0.2280950E-05
    5949.500  0.8386800E+09  0.2282263E-05
    5999.500  0.8386871E+09  0.2282282E-05
    6049.500  0.8386676E+09  0.2282229E-05
    6099.500  0.8385394E+09  0.2281880E-05
    6149.500  0.8385820E+09  0.2281996E-05
    6199.500  0.8384806E+09  0.2281720E-05
    6249.500  0.8385169E+09  0.2281819E-05
    6299.500  0.8381051E+09  0.2280699E-05
    6349.500  0.8385211E+09  0.2281831E-05
    6399.500  0.8381336E+09  0.2280776E-05
    6449.500  0.8384127E+09  0.2281536E-05
    6499.500  0.8381235E+09  0.2280749E-05
    6549.500  0.8384749E+09  0.2281705E-05
    6599.500  0.8383472E+09  0.2281357E-05
    6649.500  0.8381765E+09  0.2280893E-05
    6699.500  0.8385121E+09  0.2281806E-05
    6749.500  0.8381016E+09  0.2280689E-05
    6799.500  0.8380783E+09  0.2280626E-05
    6849.500  0.8382506E+09  0.2281095E-05
    6899.500  0.8380929E+09  0.2280665E-05
    6949.500  0.8382318E+09  0.2281043E-05
    6999.500  0.8382653E+09  0.2281134E-05
    7049.500  0.8379725E+09  0.2280338E-05
    7099.500  0.8379000E+09  0.2280140E-05
    7149.500  0.8382421E+09  0.2281071E-05
    7199.500  0.8379647E+09  0.2280317E-05
    7249.500  0.8380286E+09  0.2280490E-05
    7299.500  0.8381709E+09  0.2280878E-05
    7349.500  0.8379660E+09  0.2280320E-05
    7399.500  0.8382650E+09  0.2281134E-05
    7449.500  0.8380065E+09  0.2280430E-05
    7499.500  0.8383294E+09  0.2281309E-05
    7549.500  0.8380361E+09  0.2280511E-05
    7599.500  0.8381413E+09  0.2280797E-05
    7649.500  0.8382184E+09  0.2281007E-05
    7699.500  0.8382020E+09  0.2280962E-05
    7749.500  0.8381321E+09  0.2280772E-05
    7799.500  0.8379464E+09  0.2280267E-05
    7849.500  0.8380022E+09  0.2280418E-05
    7899.500  0.8382424E+09  0.2281072E-05
    7949.500  0.8380931E+09  0.2280666E-05
    7999.500  0.8378134E+09  0.2279905E-05
    8049.500  0.8381970E+09  0.2280949E-05
    8099.500  0.8379014E+09  0.2280144E-05
    8149.500  0.8380479E+09  0.2280543E-05
    8199.500  0.8380636E+09  0.2280585E-05
    8249.500  0.8381494E+09  0.2280819E-05
    8299.500  0.8378252E+09  0.2279937E-05
    8349.500  0.8379040E+09  0.2280151E-05
    8399.500  0.8377720E+09  0.2279792E-05
    8449.500  0.8378876E+09  0.2280107E-05
    8499.500  0.8380666E+09  0.2280594E-05
    8549.500  0.8378115E+09  0.2279899E-05
    8599.500  0.8381207E+09  0.2280741E-05
    8649.500  0.8381304E+09  0.2280767E-05
    8699.500  0.8381781E+09  0.2280897E-05
    8749.500  0.8380368E+09  0.2280513E-05
    8799.500  0.8382358E+09  0.2281054E-05
    8849.500  0.8380633E+09  0.2280585E-05
    8899.500  0.8381043E+09  0.2280696E-05
    8949.500  0.8378231E+09  0.2279931E-05
    8999.500  0.8379790E+09  0.2280355E-05
    9049.500  0.8381262E+09  0.2280756E-05
    9099.500  0.8380709E+09  0.2280605E-05
    9149.500  0.8381805E+09  0.2280904E-05
    9199.500  0.8380004E+09  0.2280414E-05
    9249.500  0.8379220E+09  0.2280200E-05
    9299.500  0.8379421E+09  0.2280255E-05
    9349.500  0.8379759E+09  0.2280347E-05
    9399.500  0.8381778E+09  0.2280896E-05
    9449.500  0.8380101E+09  0.2280440E-05
    9499.500  0.8380601E+09  0.2280576E-05
    9549.500  0.8379644E+09  0.2280316E-05
    9599.500  0.8380805E+09  0.2280632E-05
    9649.500  0.8380613E+09  0.2280579E-05
    9699.500  0.8377309E+09  0.2279680E-05
    9749.500  0.8380972E+09  0.2280677E-05
    9799.500  0.8382120E+09  0.2280989E-05
    9849.500  0.8381920E+09  0.2280935E-05
    9899.500  0.8379040E+09  0.2280151E-05
    9949.500  0.8381696E+09  0.2280874E-05
    9999.500  0.8380989E+09  0.2280682E-05
