 % time (yr) / global total Fe (mol) / global mean Fe (mol kg-1) / surface (ice-free) Fe (mol kg-1) / benthic [> 2000 m] Fe (mol kg-1) / surface Fe (mol kg-1)
       0.500  0.867261317589E+12  0.647941E-09  0.528147E-09  0.650663E-09  0.528147E-09
       1.500  0.865299733354E+12  0.646476E-09  0.401988E-09  0.652368E-09  0.401988E-09
       2.500  0.865083220039E+12  0.646315E-09  0.339403E-09  0.654131E-09  0.339403E-09
       3.500  0.865216540727E+12  0.646415E-09  0.301517E-09  0.655807E-09  0.301882E-09
       4.500  0.865430224799E+12  0.646575E-09  0.278255E-09  0.657328E-09  0.279218E-09
       5.500  0.865653023617E+12  0.646742E-09  0.263130E-09  0.658676E-09  0.264470E-09
       6.500  0.865870861049E+12  0.646905E-09  0.251654E-09  0.659890E-09  0.253796E-09
       7.500  0.866088662238E+12  0.647068E-09  0.242699E-09  0.660972E-09  0.245434E-09
       8.500  0.866309239530E+12  0.647233E-09  0.234651E-09  0.661931E-09  0.238573E-09
       9.500  0.866542923649E+12  0.647408E-09  0.228061E-09  0.662802E-09  0.233257E-09
      10.500  0.866778742899E+12  0.647585E-09  0.222853E-09  0.663588E-09  0.228848E-09
      11.500  0.867017239478E+12  0.647763E-09  0.217944E-09  0.664267E-09  0.225095E-09
      12.500  0.867261920946E+12  0.647947E-09  0.214020E-09  0.664882E-09  0.221950E-09
      13.500  0.867510140344E+12  0.648133E-09  0.210666E-09  0.665454E-09  0.219346E-09
      14.500  0.867761200761E+12  0.648321E-09  0.208159E-09  0.665991E-09  0.217168E-09
      15.500  0.868011589328E+12  0.648508E-09  0.206043E-09  0.666469E-09  0.215224E-09
      16.500  0.868262756322E+12  0.648696E-09  0.204376E-09  0.666900E-09  0.213716E-09
      17.500  0.868511651429E+12  0.648882E-09  0.202946E-09  0.667299E-09  0.212361E-09
      18.500  0.868759118267E+12  0.649067E-09  0.201773E-09  0.667670E-09  0.211160E-09
      19.500  0.869005403471E+12  0.649251E-09  0.200841E-09  0.668011E-09  0.210170E-09
      21.500  0.869490959065E+12  0.649614E-09  0.199317E-09  0.668581E-09  0.208413E-09
      23.500  0.869968766132E+12  0.649971E-09  0.198297E-09  0.669005E-09  0.207181E-09
      25.500  0.870439031785E+12  0.650323E-09  0.197682E-09  0.669318E-09  0.206366E-09
      27.500  0.870904272536E+12  0.650670E-09  0.197378E-09  0.669554E-09  0.205893E-09
      29.500  0.871367254927E+12  0.651016E-09  0.197179E-09  0.669703E-09  0.205489E-09
      31.500  0.871828115566E+12  0.651360E-09  0.196987E-09  0.669768E-09  0.205075E-09
      33.500  0.872288667859E+12  0.651704E-09  0.196993E-09  0.669816E-09  0.204885E-09
      35.500  0.872746796464E+12  0.652047E-09  0.197008E-09  0.669869E-09  0.204719E-09
      37.500  0.873203702889E+12  0.652388E-09  0.197193E-09  0.669936E-09  0.204733E-09
      39.500  0.873659715072E+12  0.652729E-09  0.197465E-09  0.670003E-09  0.204829E-09
      41.500  0.874114367285E+12  0.653069E-09  0.197867E-09  0.670060E-09  0.205002E-09
      43.500  0.874568089442E+12  0.653408E-09  0.198322E-09  0.670112E-09  0.205317E-09
      45.500  0.875019536125E+12  0.653745E-09  0.198898E-09  0.670159E-09  0.205784E-09
      47.500  0.875468919117E+12  0.654081E-09  0.199595E-09  0.670204E-09  0.206361E-09
      49.500  0.875914893483E+12  0.654414E-09  0.200271E-09  0.670248E-09  0.206928E-09
      51.500  0.876358837750E+12  0.654745E-09  0.200942E-09  0.670277E-09  0.207516E-09
      53.500  0.876797232697E+12  0.655073E-09  0.201557E-09  0.670299E-09  0.208068E-09
      55.500  0.877231456724E+12  0.655397E-09  0.202192E-09  0.670316E-09  0.208622E-09
      57.500  0.877661412634E+12  0.655719E-09  0.202799E-09  0.670323E-09  0.209146E-09
      59.500  0.878086719116E+12  0.656036E-09  0.203418E-09  0.670326E-09  0.209658E-09
      61.500  0.878507199001E+12  0.656351E-09  0.203941E-09  0.670326E-09  0.210128E-09
      63.500  0.878922865416E+12  0.656661E-09  0.204488E-09  0.670321E-09  0.210613E-09
      65.500  0.879334400746E+12  0.656969E-09  0.204981E-09  0.670309E-09  0.211054E-09
      67.500  0.879741566516E+12  0.657273E-09  0.205412E-09  0.670286E-09  0.211439E-09
      69.500  0.880144940602E+12  0.657574E-09  0.205887E-09  0.670253E-09  0.211854E-09
      71.500  0.880543920173E+12  0.657872E-09  0.206332E-09  0.670215E-09  0.212249E-09
      73.500  0.880938031877E+12  0.658167E-09  0.206724E-09  0.670170E-09  0.212607E-09
      75.500  0.881328220120E+12  0.658458E-09  0.207114E-09  0.670121E-09  0.212963E-09
      77.500  0.881714301164E+12  0.658747E-09  0.207453E-09  0.670070E-09  0.213281E-09
      79.500  0.882096643943E+12  0.659032E-09  0.207824E-09  0.670015E-09  0.213633E-09
      81.500  0.882475325859E+12  0.659315E-09  0.208195E-09  0.669955E-09  0.213985E-09
      83.500  0.882849637505E+12  0.659595E-09  0.208551E-09  0.669896E-09  0.214326E-09
      85.500  0.883220550125E+12  0.659872E-09  0.208903E-09  0.669837E-09  0.214670E-09
      87.500  0.883588177323E+12  0.660147E-09  0.209252E-09  0.669774E-09  0.215005E-09
      89.500  0.883952484274E+12  0.660419E-09  0.209579E-09  0.669715E-09  0.215326E-09
      91.500  0.884312691622E+12  0.660688E-09  0.209910E-09  0.669656E-09  0.215658E-09
      93.500  0.884669171777E+12  0.660954E-09  0.210228E-09  0.669597E-09  0.215979E-09
      95.500  0.885023229173E+12  0.661219E-09  0.210567E-09  0.669536E-09  0.216320E-09
      97.500  0.885373719667E+12  0.661481E-09  0.210859E-09  0.669477E-09  0.216622E-09
      99.500  0.885721396055E+12  0.661740E-09  0.211169E-09  0.669422E-09  0.216935E-09
     104.500  0.886575434876E+12  0.662379E-09  0.211826E-09  0.669283E-09  0.217622E-09
     109.500  0.887408976150E+12  0.663001E-09  0.212405E-09  0.669152E-09  0.218239E-09
     114.500  0.888223006502E+12  0.663610E-09  0.212971E-09  0.669038E-09  0.218841E-09
     119.500  0.889017436784E+12  0.664203E-09  0.213493E-09  0.668942E-09  0.219400E-09
     124.500  0.889792644686E+12  0.664782E-09  0.214043E-09  0.668861E-09  0.219999E-09
     129.500  0.890549090232E+12  0.665347E-09  0.214562E-09  0.668797E-09  0.220570E-09
     134.500  0.891288410167E+12  0.665900E-09  0.215099E-09  0.668746E-09  0.221174E-09
     139.500  0.892010926255E+12  0.666440E-09  0.215677E-09  0.668705E-09  0.221790E-09
     144.500  0.892717012399E+12  0.666967E-09  0.216264E-09  0.668672E-09  0.222447E-09
     149.500  0.893406170039E+12  0.667482E-09  0.216745E-09  0.668646E-09  0.223009E-09
     154.500  0.894080117748E+12  0.667985E-09  0.217267E-09  0.668630E-09  0.223613E-09
     159.500  0.894739177729E+12  0.668478E-09  0.217668E-09  0.668621E-09  0.224249E-09
     164.500  0.895381259983E+12  0.668958E-09  0.218018E-09  0.668616E-09  0.224771E-09
     169.500  0.896009379803E+12  0.669427E-09  0.218320E-09  0.668621E-09  0.225180E-09
     174.500  0.896624021127E+12  0.669886E-09  0.218466E-09  0.668648E-09  0.225467E-09
     179.500  0.897223721979E+12  0.670334E-09  0.218606E-09  0.668688E-09  0.225779E-09
     184.500  0.897812378663E+12  0.670774E-09  0.218910E-09  0.668728E-09  0.226140E-09
     189.500  0.898387835056E+12  0.671204E-09  0.219237E-09  0.668754E-09  0.226542E-09
     194.500  0.898951624337E+12  0.671625E-09  0.219681E-09  0.668777E-09  0.227029E-09
     199.500  0.899503817856E+12  0.672038E-09  0.220084E-09  0.668804E-09  0.227510E-09
     204.500  0.900044807351E+12  0.672442E-09  0.220484E-09  0.668838E-09  0.228000E-09
     209.500  0.900575481223E+12  0.672838E-09  0.220925E-09  0.668877E-09  0.228501E-09
     214.500  0.901095359230E+12  0.673227E-09  0.221375E-09  0.668922E-09  0.229005E-09
     219.500  0.901605647947E+12  0.673608E-09  0.221800E-09  0.668976E-09  0.229498E-09
     224.500  0.902105908826E+12  0.673982E-09  0.222154E-09  0.669041E-09  0.229961E-09
     229.500  0.902596235798E+12  0.674348E-09  0.222457E-09  0.669118E-09  0.230379E-09
     234.500  0.903077688588E+12  0.674708E-09  0.222865E-09  0.669208E-09  0.230828E-09
     239.500  0.903549832749E+12  0.675061E-09  0.223170E-09  0.669312E-09  0.231257E-09
     244.500  0.904014080346E+12  0.675407E-09  0.223507E-09  0.669425E-09  0.231675E-09
     249.500  0.904470363044E+12  0.675748E-09  0.223808E-09  0.669548E-09  0.232094E-09
     254.500  0.904919446650E+12  0.676084E-09  0.224136E-09  0.669682E-09  0.232518E-09
     259.500  0.905360680376E+12  0.676413E-09  0.224479E-09  0.669824E-09  0.232939E-09
     264.500  0.905794323493E+12  0.676737E-09  0.224729E-09  0.669976E-09  0.233320E-09
     269.500  0.906220471885E+12  0.677056E-09  0.225007E-09  0.670136E-09  0.233729E-09
     274.500  0.906638389940E+12  0.677368E-09  0.225458E-09  0.670303E-09  0.234032E-09
     279.500  0.907050101264E+12  0.677676E-09  0.225731E-09  0.670473E-09  0.234415E-09
     284.500  0.907453359410E+12  0.677977E-09  0.225970E-09  0.670652E-09  0.234707E-09
     289.500  0.907850452577E+12  0.678274E-09  0.226220E-09  0.670839E-09  0.235043E-09
     294.500  0.908238983830E+12  0.678564E-09  0.226459E-09  0.671029E-09  0.235293E-09
     299.500  0.908622803793E+12  0.678851E-09  0.226627E-09  0.671228E-09  0.235587E-09
     304.500  0.908999633693E+12  0.679132E-09  0.226973E-09  0.671430E-09  0.235898E-09
     309.500  0.909369519277E+12  0.679408E-09  0.227072E-09  0.671637E-09  0.236141E-09
     314.500  0.909734565744E+12  0.679681E-09  0.227219E-09  0.671850E-09  0.236430E-09
     319.500  0.910094481885E+12  0.679950E-09  0.227352E-09  0.672068E-09  0.236704E-09
     324.500  0.910447835166E+12  0.680214E-09  0.227635E-09  0.672290E-09  0.236936E-09
     329.500  0.910795571717E+12  0.680474E-09  0.227772E-09  0.672517E-09  0.237196E-09
     334.500  0.911139170339E+12  0.680731E-09  0.227929E-09  0.672748E-09  0.237444E-09
     339.500  0.911479249032E+12  0.680985E-09  0.227945E-09  0.672982E-09  0.237762E-09
     344.500  0.911813121374E+12  0.681234E-09  0.228157E-09  0.673221E-09  0.237966E-09
     349.500  0.912143038923E+12  0.681481E-09  0.228369E-09  0.673457E-09  0.238258E-09
     354.500  0.912469324663E+12  0.681724E-09  0.228485E-09  0.673699E-09  0.238530E-09
     359.500  0.912789724968E+12  0.681964E-09  0.228506E-09  0.673942E-09  0.238720E-09
     364.500  0.913109302228E+12  0.682203E-09  0.228626E-09  0.674185E-09  0.239000E-09
     369.500  0.913421211655E+12  0.682436E-09  0.228750E-09  0.674431E-09  0.239114E-09
     374.500  0.913731571888E+12  0.682668E-09  0.229015E-09  0.674678E-09  0.239368E-09
     379.500  0.914036918680E+12  0.682896E-09  0.229201E-09  0.674925E-09  0.239578E-09
     384.500  0.914338678535E+12  0.683121E-09  0.229239E-09  0.675172E-09  0.239770E-09
     389.500  0.914637215889E+12  0.683344E-09  0.229179E-09  0.675418E-09  0.239945E-09
     394.500  0.914930130687E+12  0.683563E-09  0.229214E-09  0.675664E-09  0.240065E-09
     399.500  0.915225086890E+12  0.683784E-09  0.229460E-09  0.675912E-09  0.240317E-09
     404.500  0.915511436667E+12  0.683998E-09  0.229406E-09  0.676160E-09  0.240396E-09
     409.500  0.915800803302E+12  0.684214E-09  0.229351E-09  0.676411E-09  0.240674E-09
     414.500  0.916084488786E+12  0.684426E-09  0.229517E-09  0.676661E-09  0.240844E-09
     419.500  0.916365549057E+12  0.684636E-09  0.229848E-09  0.676913E-09  0.241052E-09
     424.500  0.916647341371E+12  0.684846E-09  0.229923E-09  0.677161E-09  0.241347E-09
     429.500  0.916923683173E+12  0.685053E-09  0.229986E-09  0.677416E-09  0.241493E-09
     434.500  0.917194693658E+12  0.685255E-09  0.229816E-09  0.677665E-09  0.241552E-09
     439.500  0.917464784660E+12  0.685457E-09  0.229793E-09  0.677914E-09  0.241719E-09
     444.500  0.917734003629E+12  0.685658E-09  0.230177E-09  0.678164E-09  0.241920E-09
     449.500  0.918000572484E+12  0.685858E-09  0.229892E-09  0.678416E-09  0.242041E-09
     454.500  0.918267335140E+12  0.686057E-09  0.229980E-09  0.678665E-09  0.242203E-09
     459.500  0.918530639963E+12  0.686254E-09  0.230008E-09  0.678919E-09  0.242345E-09
     464.500  0.918793813074E+12  0.686450E-09  0.230114E-09  0.679175E-09  0.242514E-09
     469.500  0.919052424135E+12  0.686644E-09  0.229976E-09  0.679424E-09  0.242558E-09
     474.500  0.919311490605E+12  0.686837E-09  0.229992E-09  0.679679E-09  0.242625E-09
     479.500  0.919570572561E+12  0.687031E-09  0.230145E-09  0.679930E-09  0.242788E-09
     484.500  0.919824168678E+12  0.687220E-09  0.230119E-09  0.680189E-09  0.242846E-09
     489.500  0.920078436637E+12  0.687410E-09  0.230298E-09  0.680444E-09  0.242935E-09
     494.500  0.920333142507E+12  0.687600E-09  0.230287E-09  0.680702E-09  0.243075E-09
     499.500  0.920585134308E+12  0.687789E-09  0.230439E-09  0.680957E-09  0.243166E-09
     504.500  0.920839261313E+12  0.687978E-09  0.230498E-09  0.681213E-09  0.243404E-09
     509.500  0.921088290106E+12  0.688165E-09  0.230573E-09  0.681468E-09  0.243504E-09
     514.500  0.921337145988E+12  0.688350E-09  0.230654E-09  0.681722E-09  0.243636E-09
     519.500  0.921582079692E+12  0.688533E-09  0.230645E-09  0.681975E-09  0.243658E-09
     524.500  0.921828026543E+12  0.688717E-09  0.230730E-09  0.682227E-09  0.243759E-09
     529.500  0.922078026366E+12  0.688904E-09  0.230781E-09  0.682478E-09  0.244006E-09
     534.500  0.922327542980E+12  0.689091E-09  0.230886E-09  0.682728E-09  0.244223E-09
     539.500  0.922573520815E+12  0.689274E-09  0.230930E-09  0.682978E-09  0.244363E-09
     544.500  0.922817834002E+12  0.689457E-09  0.231041E-09  0.683227E-09  0.244472E-09
     549.500  0.923056065764E+12  0.689635E-09  0.230988E-09  0.683472E-09  0.244412E-09
     554.500  0.923304536228E+12  0.689821E-09  0.231146E-09  0.683718E-09  0.244734E-09
     559.500  0.923541723201E+12  0.689998E-09  0.231165E-09  0.683966E-09  0.244740E-09
     564.500  0.923785498730E+12  0.690180E-09  0.231285E-09  0.684210E-09  0.244993E-09
     569.500  0.924018761785E+12  0.690354E-09  0.231252E-09  0.684456E-09  0.244929E-09
     574.500  0.924257068615E+12  0.690532E-09  0.231419E-09  0.684701E-09  0.245060E-09
     579.500  0.924490890006E+12  0.690707E-09  0.231427E-09  0.684947E-09  0.245141E-09
     584.500  0.924729550550E+12  0.690885E-09  0.231428E-09  0.685190E-09  0.245359E-09
     589.500  0.924965183121E+12  0.691061E-09  0.231482E-09  0.685433E-09  0.245475E-09
     594.500  0.925202118037E+12  0.691239E-09  0.231389E-09  0.685679E-09  0.245650E-09
     599.500  0.925436166863E+12  0.691413E-09  0.231392E-09  0.685922E-09  0.245689E-09
     604.500  0.925666300685E+12  0.691585E-09  0.231436E-09  0.686165E-09  0.245668E-09
     609.500  0.925899441282E+12  0.691760E-09  0.231512E-09  0.686405E-09  0.245789E-09
     614.500  0.926127291154E+12  0.691930E-09  0.231620E-09  0.686648E-09  0.245796E-09
     619.500  0.926358903864E+12  0.692103E-09  0.231546E-09  0.686889E-09  0.245916E-09
     624.500  0.926588443146E+12  0.692274E-09  0.231611E-09  0.687132E-09  0.246016E-09
     629.500  0.926822261029E+12  0.692449E-09  0.231613E-09  0.687373E-09  0.246211E-09
     634.500  0.927049568309E+12  0.692619E-09  0.231618E-09  0.687616E-09  0.246260E-09
     639.500  0.927276031859E+12  0.692788E-09  0.231642E-09  0.687861E-09  0.246291E-09
     644.500  0.927503635852E+12  0.692958E-09  0.231769E-09  0.688104E-09  0.246391E-09
     649.500  0.927734254785E+12  0.693131E-09  0.231849E-09  0.688347E-09  0.246611E-09
     654.500  0.927959595916E+12  0.693299E-09  0.231818E-09  0.688590E-09  0.246651E-09
     659.500  0.928182128416E+12  0.693465E-09  0.231875E-09  0.688833E-09  0.246664E-09
     664.500  0.928408845405E+12  0.693635E-09  0.231910E-09  0.689079E-09  0.246840E-09
     669.500  0.928632845756E+12  0.693802E-09  0.231889E-09  0.689323E-09  0.246902E-09
     674.500  0.928853449713E+12  0.693967E-09  0.231923E-09  0.689567E-09  0.246930E-09
     679.500  0.929079181895E+12  0.694136E-09  0.231943E-09  0.689809E-09  0.247096E-09
     684.500  0.929303308007E+12  0.694303E-09  0.231934E-09  0.690054E-09  0.247252E-09
     689.500  0.929520867901E+12  0.694466E-09  0.231912E-09  0.690302E-09  0.247207E-09
     694.500  0.929743121573E+12  0.694632E-09  0.231941E-09  0.690552E-09  0.247370E-09
     699.500  0.929961295637E+12  0.694795E-09  0.232060E-09  0.690801E-09  0.247430E-09
     704.500  0.930181694679E+12  0.694960E-09  0.232032E-09  0.691052E-09  0.247537E-09
     709.500  0.930402429251E+12  0.695125E-09  0.231858E-09  0.691302E-09  0.247708E-09
     714.500  0.930620076469E+12  0.695287E-09  0.231739E-09  0.691551E-09  0.247702E-09
     719.500  0.930838382818E+12  0.695450E-09  0.231675E-09  0.691802E-09  0.247734E-09
     724.500  0.931058681289E+12  0.695615E-09  0.231620E-09  0.692054E-09  0.247835E-09
     729.500  0.931276279590E+12  0.695778E-09  0.231752E-09  0.692305E-09  0.247916E-09
     734.500  0.931492572461E+12  0.695939E-09  0.231736E-09  0.692558E-09  0.248006E-09
     739.500  0.931708787251E+12  0.696101E-09  0.231709E-09  0.692811E-09  0.248074E-09
     744.500  0.931926311787E+12  0.696263E-09  0.231754E-09  0.693065E-09  0.248215E-09
     749.500  0.932138124225E+12  0.696422E-09  0.231757E-09  0.693320E-09  0.248241E-09
     754.500  0.932350658689E+12  0.696580E-09  0.231714E-09  0.693574E-09  0.248256E-09
     759.500  0.932564989767E+12  0.696741E-09  0.231673E-09  0.693830E-09  0.248336E-09
     764.500  0.932779172442E+12  0.696901E-09  0.231641E-09  0.694084E-09  0.248404E-09
     769.500  0.932994344004E+12  0.697061E-09  0.231545E-09  0.694338E-09  0.248526E-09
     774.500  0.933205834099E+12  0.697220E-09  0.231429E-09  0.694600E-09  0.248555E-09
     779.500  0.933420256457E+12  0.697380E-09  0.231328E-09  0.694862E-09  0.248655E-09
     784.500  0.933632833242E+12  0.697539E-09  0.231686E-09  0.695130E-09  0.248753E-09
     789.500  0.933844413576E+12  0.697697E-09  0.231465E-09  0.695397E-09  0.248831E-09
     794.500  0.934052087833E+12  0.697852E-09  0.231478E-09  0.695663E-09  0.248770E-09
     799.500  0.934263803254E+12  0.698010E-09  0.231490E-09  0.695936E-09  0.248874E-09
     804.500  0.934473869218E+12  0.698167E-09  0.231454E-09  0.696208E-09  0.249024E-09
     809.500  0.934682614793E+12  0.698323E-09  0.231505E-09  0.696482E-09  0.249116E-09
     814.500  0.934891585259E+12  0.698479E-09  0.231404E-09  0.696756E-09  0.249231E-09
     819.500  0.935097341790E+12  0.698633E-09  0.231457E-09  0.697029E-09  0.249249E-09
     824.500  0.935306612309E+12  0.698789E-09  0.231300E-09  0.697302E-09  0.249382E-09
     829.500  0.935512396438E+12  0.698943E-09  0.231415E-09  0.697575E-09  0.249451E-09
     834.500  0.935717775815E+12  0.699097E-09  0.231150E-09  0.697848E-09  0.249506E-09
     839.500  0.935922399548E+12  0.699250E-09  0.231419E-09  0.698125E-09  0.249502E-09
     844.500  0.936128027942E+12  0.699403E-09  0.231258E-09  0.698403E-09  0.249662E-09
     849.500  0.936334349283E+12  0.699557E-09  0.231146E-09  0.698683E-09  0.249774E-09
     854.500  0.936536948346E+12  0.699709E-09  0.231282E-09  0.698957E-09  0.249786E-09
     859.500  0.936744396014E+12  0.699864E-09  0.231165E-09  0.699238E-09  0.249937E-09
     864.500  0.936950175743E+12  0.700018E-09  0.231202E-09  0.699519E-09  0.250021E-09
     869.500  0.937154800280E+12  0.700171E-09  0.231086E-09  0.699798E-09  0.250158E-09
     874.500  0.937355523187E+12  0.700321E-09  0.230998E-09  0.700077E-09  0.250082E-09
     879.500  0.937561833905E+12  0.700475E-09  0.231078E-09  0.700364E-09  0.250269E-09
     884.500  0.937765931356E+12  0.700627E-09  0.231221E-09  0.700651E-09  0.250413E-09
     889.500  0.937970142155E+12  0.700780E-09  0.231108E-09  0.700937E-09  0.250546E-09
     894.500  0.938169544384E+12  0.700929E-09  0.231087E-09  0.701224E-09  0.250516E-09
     899.500  0.938370412918E+12  0.701079E-09  0.231218E-09  0.701509E-09  0.250562E-09
     904.500  0.938575480658E+12  0.701232E-09  0.231083E-09  0.701788E-09  0.250684E-09
     909.500  0.938777105578E+12  0.701383E-09  0.230930E-09  0.702074E-09  0.250757E-09
