 % time (yr) / global opal flux (mol yr-1) / global opal density (mol m-2 yr-1) / global opal DOM fraction
       0.500  0.1991836E+15  0.5420296E+00    0.000
       1.500  0.2040860E+15  0.5553702E+00    0.000
       2.500  0.1996736E+15  0.5433629E+00    0.000
       3.500  0.1892325E+15  0.5149501E+00    0.000
       4.500  0.1779081E+15  0.4841335E+00    0.000
       5.500  0.1691806E+15  0.4603838E+00    0.000
       6.500  0.1623907E+15  0.4419067E+00    0.000
       7.500  0.1564909E+15  0.4258519E+00    0.000
       8.500  0.1513006E+15  0.4117275E+00    0.000
       9.500  0.1462047E+15  0.3978604E+00    0.000
      10.500  0.1418630E+15  0.3860455E+00    0.000
      11.500  0.1380576E+15  0.3756901E+00    0.000
      12.500  0.1344779E+15  0.3659488E+00    0.000
      13.500  0.1312660E+15  0.3572085E+00    0.000
      14.500  0.1283969E+15  0.3494008E+00    0.000
      15.500  0.1258884E+15  0.3425746E+00    0.000
      16.500  0.1236583E+15  0.3365060E+00    0.000
      17.500  0.1217293E+15  0.3312566E+00    0.000
      18.500  0.1200916E+15  0.3268000E+00    0.000
      19.500  0.1186919E+15  0.3229910E+00    0.000
      21.500  0.1166800E+15  0.3175162E+00    0.000
      23.500  0.1152455E+15  0.3136126E+00    0.000
      25.500  0.1142642E+15  0.3109422E+00    0.000
      27.500  0.1134652E+15  0.3087680E+00    0.000
      29.500  0.1126530E+15  0.3065577E+00    0.000
      31.500  0.1118702E+15  0.3044275E+00    0.000
      33.500  0.1110736E+15  0.3022598E+00    0.000
      35.500  0.1102799E+15  0.3000998E+00    0.000
      37.500  0.1094905E+15  0.2979517E+00    0.000
      39.500  0.1086811E+15  0.2957490E+00    0.000
      41.500  0.1079030E+15  0.2936316E+00    0.000
      43.500  0.1071090E+15  0.2914711E+00    0.000
      45.500  0.1064189E+15  0.2895929E+00    0.000
      47.500  0.1058651E+15  0.2880860E+00    0.000
      49.500  0.1053103E+15  0.2865764E+00    0.000
      51.500  0.1047508E+15  0.2850539E+00    0.000
      53.500  0.1042969E+15  0.2838185E+00    0.000
      55.500  0.1039538E+15  0.2828848E+00    0.000
      57.500  0.1036541E+15  0.2820695E+00    0.000
      59.500  0.1033976E+15  0.2813715E+00    0.000
      61.500  0.1031888E+15  0.2808030E+00    0.000
      63.500  0.1030115E+15  0.2803206E+00    0.000
      65.500  0.1028773E+15  0.2799554E+00    0.000
      67.500  0.1027319E+15  0.2795597E+00    0.000
      69.500  0.1025863E+15  0.2791637E+00    0.000
      71.500  0.1024808E+15  0.2788764E+00    0.000
      73.500  0.1024093E+15  0.2786820E+00    0.000
      75.500  0.1023202E+15  0.2784395E+00    0.000
      77.500  0.1022379E+15  0.2782156E+00    0.000
      79.500  0.1021613E+15  0.2780070E+00    0.000
      81.500  0.1021028E+15  0.2778479E+00    0.000
      83.500  0.1020465E+15  0.2776947E+00    0.000
      85.500  0.1019843E+15  0.2775255E+00    0.000
      87.500  0.1019199E+15  0.2773500E+00    0.000
      89.500  0.1018602E+15  0.2771877E+00    0.000
      91.500  0.1018025E+15  0.2770308E+00    0.000
      93.500  0.1017469E+15  0.2768794E+00    0.000
      95.500  0.1016807E+15  0.2766993E+00    0.000
      97.500  0.1016351E+15  0.2765752E+00    0.000
      99.500  0.1015735E+15  0.2764074E+00    0.000
     104.500  0.1014390E+15  0.2760414E+00    0.000
     109.500  0.1013323E+15  0.2757512E+00    0.000
     114.500  0.1012570E+15  0.2755463E+00    0.000
     119.500  0.1011999E+15  0.2753908E+00    0.000
     124.500  0.1011681E+15  0.2753043E+00    0.000
     129.500  0.1011515E+15  0.2752590E+00    0.000
     134.500  0.1011349E+15  0.2752139E+00    0.000
     139.500  0.1011352E+15  0.2752147E+00    0.000
     144.500  0.1011425E+15  0.2752346E+00    0.000
     149.500  0.1011356E+15  0.2752159E+00    0.000
     154.500  0.1011403E+15  0.2752286E+00    0.000
     159.500  0.1012037E+15  0.2754013E+00    0.000
     164.500  0.1012160E+15  0.2754345E+00    0.000
     169.500  0.1012110E+15  0.2754211E+00    0.000
     174.500  0.1010930E+15  0.2751000E+00    0.000
     179.500  0.1009757E+15  0.2747807E+00    0.000
     184.500  0.1009996E+15  0.2748459E+00    0.000
     189.500  0.1010010E+15  0.2748497E+00    0.000
     194.500  0.1010056E+15  0.2748620E+00    0.000
     199.500  0.1010150E+15  0.2748878E+00    0.000
     204.500  0.1010453E+15  0.2749701E+00    0.000
     209.500  0.1010646E+15  0.2750228E+00    0.000
     214.500  0.1010901E+15  0.2750921E+00    0.000
     219.500  0.1011098E+15  0.2751456E+00    0.000
     224.500  0.1011396E+15  0.2752268E+00    0.000
     229.500  0.1011647E+15  0.2752951E+00    0.000
     234.500  0.1011976E+15  0.2753845E+00    0.000
     239.500  0.1012256E+15  0.2754608E+00    0.000
     244.500  0.1012405E+15  0.2755012E+00    0.000
     249.500  0.1012611E+15  0.2755573E+00    0.000
     254.500  0.1012427E+15  0.2755072E+00    0.000
     259.500  0.1012141E+15  0.2754296E+00    0.000
     264.500  0.1012106E+15  0.2754199E+00    0.000
     269.500  0.1011846E+15  0.2753493E+00    0.000
     274.500  0.1012780E+15  0.2756033E+00    0.000
     279.500  0.1012763E+15  0.2755987E+00    0.000
     284.500  0.1012930E+15  0.2756442E+00    0.000
     289.500  0.1012797E+15  0.2756080E+00    0.000
     294.500  0.1012865E+15  0.2756266E+00    0.000
     299.500  0.1012347E+15  0.2754856E+00    0.000
     304.500  0.1012694E+15  0.2755799E+00    0.000
     309.500  0.1012601E+15  0.2755546E+00    0.000
     314.500  0.1011721E+15  0.2753152E+00    0.000
     319.500  0.1010700E+15  0.2750373E+00    0.000
     324.500  0.1011125E+15  0.2751529E+00    0.000
     329.500  0.1010787E+15  0.2750609E+00    0.000
     334.500  0.1009890E+15  0.2748170E+00    0.000
     339.500  0.1007632E+15  0.2742025E+00    0.000
     344.500  0.1008201E+15  0.2743572E+00    0.000
     349.500  0.1007221E+15  0.2740906E+00    0.000
     354.500  0.1006679E+15  0.2739430E+00    0.000
     359.500  0.1006021E+15  0.2737641E+00    0.000
     364.500  0.1004241E+15  0.2732798E+00    0.000
     369.500  0.1004952E+15  0.2734730E+00    0.000
     374.500  0.1004178E+15  0.2732626E+00    0.000
     379.500  0.1003745E+15  0.2731447E+00    0.000
     384.500  0.1003445E+15  0.2730632E+00    0.000
     389.500  0.1002222E+15  0.2727302E+00    0.000
     394.500  0.1001903E+15  0.2726434E+00    0.000
     399.500  0.1001432E+15  0.2725153E+00    0.000
     404.500  0.1001190E+15  0.2724494E+00    0.000
     409.500  0.9998170E+14  0.2720758E+00    0.000
     414.500  0.9992571E+14  0.2719234E+00    0.000
     419.500  0.9998268E+14  0.2720785E+00    0.000
     424.500  0.9985403E+14  0.2717284E+00    0.000
     429.500  0.9985659E+14  0.2717354E+00    0.000
     434.500  0.9986545E+14  0.2717595E+00    0.000
     439.500  0.9974212E+14  0.2714238E+00    0.000
     444.500  0.9968209E+14  0.2712605E+00    0.000
     449.500  0.9961380E+14  0.2710746E+00    0.000
     454.500  0.9963225E+14  0.2711249E+00    0.000
     459.500  0.9954967E+14  0.2709001E+00    0.000
     464.500  0.9961070E+14  0.2710662E+00    0.000
     469.500  0.9946398E+14  0.2706670E+00    0.000
     474.500  0.9943344E+14  0.2705839E+00    0.000
     479.500  0.9935859E+14  0.2703801E+00    0.000
     484.500  0.9932205E+14  0.2702807E+00    0.000
     489.500  0.9922887E+14  0.2700272E+00    0.000
     494.500  0.9912035E+14  0.2697318E+00    0.000
     499.500  0.9906316E+14  0.2695762E+00    0.000
     504.500  0.9895990E+14  0.2692952E+00    0.000
     509.500  0.9894733E+14  0.2692610E+00    0.000
     514.500  0.9882475E+14  0.2689274E+00    0.000
     519.500  0.9876270E+14  0.2687586E+00    0.000
     524.500  0.9873318E+14  0.2686783E+00    0.000
     529.500  0.9864991E+14  0.2684517E+00    0.000
     534.500  0.9852828E+14  0.2681207E+00    0.000
     539.500  0.9840904E+14  0.2677962E+00    0.000
     544.500  0.9835460E+14  0.2676480E+00    0.000
     549.500  0.9836136E+14  0.2676664E+00    0.000
     554.500  0.9820875E+14  0.2672512E+00    0.000
     559.500  0.9823966E+14  0.2673353E+00    0.000
     564.500  0.9813751E+14  0.2670573E+00    0.000
     569.500  0.9812166E+14  0.2670142E+00    0.000
     574.500  0.9807228E+14  0.2668798E+00    0.000
     579.500  0.9801406E+14  0.2667214E+00    0.000
     584.500  0.9793475E+14  0.2665055E+00    0.000
     589.500  0.9783076E+14  0.2662225E+00    0.000
     594.500  0.9765240E+14  0.2657372E+00    0.000
     599.500  0.9766049E+14  0.2657592E+00    0.000
     604.500  0.9765745E+14  0.2657509E+00    0.000
     609.500  0.9758967E+14  0.2655665E+00    0.000
     614.500  0.9759735E+14  0.2655874E+00    0.000
     619.500  0.9751767E+14  0.2653705E+00    0.000
     624.500  0.9741501E+14  0.2650912E+00    0.000
     629.500  0.9728881E+14  0.2647478E+00    0.000
     634.500  0.9728234E+14  0.2647302E+00    0.000
     639.500  0.9719132E+14  0.2644825E+00    0.000
     644.500  0.9712812E+14  0.2643105E+00    0.000
     649.500  0.9709346E+14  0.2642162E+00    0.000
     654.500  0.9704753E+14  0.2640912E+00    0.000
     659.500  0.9705482E+14  0.2641110E+00    0.000
     664.500  0.9692435E+14  0.2637560E+00    0.000
     669.500  0.9687934E+14  0.2636335E+00    0.000
     674.500  0.9694393E+14  0.2638092E+00    0.000
     679.500  0.9682755E+14  0.2634925E+00    0.000
     684.500  0.9665715E+14  0.2630289E+00    0.000
     689.500  0.9668157E+14  0.2630953E+00    0.000
     694.500  0.9664820E+14  0.2630045E+00    0.000
     699.500  0.9665200E+14  0.2630148E+00    0.000
     704.500  0.9657492E+14  0.2628051E+00    0.000
     709.500  0.9648071E+14  0.2625487E+00    0.000
     714.500  0.9631616E+14  0.2621009E+00    0.000
     719.500  0.9631397E+14  0.2620950E+00    0.000
     724.500  0.9623590E+14  0.2618825E+00    0.000
     729.500  0.9623785E+14  0.2618878E+00    0.000
     734.500  0.9618285E+14  0.2617382E+00    0.000
     739.500  0.9616439E+14  0.2616879E+00    0.000
     744.500  0.9616742E+14  0.2616962E+00    0.000
     749.500  0.9615985E+14  0.2616756E+00    0.000
     754.500  0.9618637E+14  0.2617477E+00    0.000
     759.500  0.9606843E+14  0.2614268E+00    0.000
     764.500  0.9598550E+14  0.2612011E+00    0.000
     769.500  0.9589262E+14  0.2609484E+00    0.000
     774.500  0.9583407E+14  0.2607890E+00    0.000
     779.500  0.9567789E+14  0.2603640E+00    0.000
     784.500  0.9586419E+14  0.2608710E+00    0.000
     789.500  0.9568492E+14  0.2603832E+00    0.000
     794.500  0.9564762E+14  0.2602817E+00    0.000
     799.500  0.9570099E+14  0.2604269E+00    0.000
     804.500  0.9556158E+14  0.2600475E+00    0.000
     809.500  0.9557706E+14  0.2600896E+00    0.000
     814.500  0.9541378E+14  0.2596453E+00    0.000
     819.500  0.9541330E+14  0.2596440E+00    0.000
     824.500  0.9537356E+14  0.2595359E+00    0.000
     829.500  0.9547204E+14  0.2598039E+00    0.000
     834.500  0.9530027E+14  0.2593364E+00    0.000
     839.500  0.9526774E+14  0.2592479E+00    0.000
     844.500  0.9521390E+14  0.2591014E+00    0.000
     849.500  0.9515703E+14  0.2589466E+00    0.000
     854.500  0.9516339E+14  0.2589639E+00    0.000
     859.500  0.9502169E+14  0.2585783E+00    0.000
     864.500  0.9493440E+14  0.2583408E+00    0.000
     869.500  0.9489883E+14  0.2582440E+00    0.000
     874.500  0.9488041E+14  0.2581939E+00    0.000
     879.500  0.9480988E+14  0.2580019E+00    0.000
     884.500  0.9478338E+14  0.2579298E+00    0.000
     889.500  0.9466065E+14  0.2575959E+00    0.000
     894.500  0.9461615E+14  0.2574748E+00    0.000
     899.500  0.9457858E+14  0.2573725E+00    0.000
     904.500  0.9441979E+14  0.2569404E+00    0.000
     909.500  0.9430658E+14  0.2566323E+00    0.000
     914.500  0.9424884E+14  0.2564752E+00    0.000
     919.500  0.9428218E+14  0.2565659E+00    0.000
     924.500  0.9422694E+14  0.2564156E+00    0.000
     929.500  0.9420998E+14  0.2563695E+00    0.000
     934.500  0.9417548E+14  0.2562756E+00    0.000
     939.500  0.9421366E+14  0.2563795E+00    0.000
     944.500  0.9409729E+14  0.2560628E+00    0.000
     949.500  0.9396880E+14  0.2557131E+00    0.000
     954.500  0.9398363E+14  0.2557535E+00    0.000
     959.500  0.9387671E+14  0.2554626E+00    0.000
     964.500  0.9388028E+14  0.2554723E+00    0.000
     969.500  0.9385119E+14  0.2553931E+00    0.000
     974.500  0.9358249E+14  0.2546619E+00    0.000
     979.500  0.9353591E+14  0.2545351E+00    0.000
     984.500  0.9348963E+14  0.2544092E+00    0.000
     989.500  0.9342600E+14  0.2542361E+00    0.000
     994.500  0.9331285E+14  0.2539281E+00    0.000
     999.500  0.9333470E+14  0.2539876E+00    0.000
    1019.500  0.9312158E+14  0.2534076E+00    0.000
    1039.500  0.9281246E+14  0.2525665E+00    0.000
    1059.500  0.9273543E+14  0.2523569E+00    0.000
    1079.500  0.9258554E+14  0.2519490E+00    0.000
    1099.500  0.9222728E+14  0.2509740E+00    0.000
    1119.500  0.9213929E+14  0.2507346E+00    0.000
    1139.500  0.9183450E+14  0.2499052E+00    0.000
    1159.500  0.9170845E+14  0.2495622E+00    0.000
    1179.500  0.9155302E+14  0.2491392E+00    0.000
    1199.500  0.9138790E+14  0.2486899E+00    0.000
    1219.500  0.9109561E+14  0.2478945E+00    0.000
    1239.500  0.9097328E+14  0.2475616E+00    0.000
    1259.500  0.9071743E+14  0.2468653E+00    0.000
    1279.500  0.9056943E+14  0.2464626E+00    0.000
    1299.500  0.9033121E+14  0.2458143E+00    0.000
    1319.500  0.9006506E+14  0.2450901E+00    0.000
    1339.500  0.8986688E+14  0.2445508E+00    0.000
    1359.500  0.8969716E+14  0.2440889E+00    0.000
    1379.500  0.8937724E+14  0.2432183E+00    0.000
    1399.500  0.8907801E+14  0.2424041E+00    0.000
    1419.500  0.8881921E+14  0.2416998E+00    0.000
    1439.500  0.8855764E+14  0.2409880E+00    0.000
    1459.500  0.8832134E+14  0.2403450E+00    0.000
    1479.500  0.8806338E+14  0.2396430E+00    0.000
    1499.500  0.8784994E+14  0.2390622E+00    0.000
    1519.500  0.8741407E+14  0.2378761E+00    0.000
    1539.500  0.8716809E+14  0.2372067E+00    0.000
    1559.500  0.8692288E+14  0.2365394E+00    0.000
    1579.500  0.8671725E+14  0.2359798E+00    0.000
    1599.500  0.8643830E+14  0.2352207E+00    0.000
    1619.500  0.8616313E+14  0.2344719E+00    0.000
    1639.500  0.8586385E+14  0.2336575E+00    0.000
    1659.500  0.8557153E+14  0.2328620E+00    0.000
    1679.500  0.8530300E+14  0.2321313E+00    0.000
    1699.500  0.8500681E+14  0.2313253E+00    0.000
    1719.500  0.8471789E+14  0.2305391E+00    0.000
    1739.500  0.8447105E+14  0.2298673E+00    0.000
    1759.500  0.8422194E+14  0.2291895E+00    0.000
    1779.500  0.8401534E+14  0.2286273E+00    0.000
    1799.500  0.8370994E+14  0.2277962E+00    0.000
    1819.500  0.8353401E+14  0.2273174E+00    0.000
    1839.500  0.8334161E+14  0.2267939E+00    0.000
    1859.500  0.8315638E+14  0.2262898E+00    0.000
    1879.500  0.8298442E+14  0.2258219E+00    0.000
    1899.500  0.8280734E+14  0.2253400E+00    0.000
    1919.500  0.8271486E+14  0.2250883E+00    0.000
    1939.500  0.8250156E+14  0.2245079E+00    0.000
    1959.500  0.8233910E+14  0.2240658E+00    0.000
    1979.500  0.8220394E+14  0.2236980E+00    0.000
    1999.500  0.8212640E+14  0.2234869E+00    0.000
    2049.500  0.8180312E+14  0.2226072E+00    0.000
    2099.500  0.8152477E+14  0.2218498E+00    0.000
    2149.500  0.8127975E+14  0.2211830E+00    0.000
    2199.500  0.8103359E+14  0.2205131E+00    0.000
    2249.500  0.8080391E+14  0.2198881E+00    0.000
    2299.500  0.8065828E+14  0.2194918E+00    0.000
    2349.500  0.8044998E+14  0.2189250E+00    0.000
    2399.500  0.8023838E+14  0.2183492E+00    0.000
    2449.500  0.8000952E+14  0.2177264E+00    0.000
    2499.500  0.7992759E+14  0.2175034E+00    0.000
    2549.500  0.7970481E+14  0.2168972E+00    0.000
    2599.500  0.7954211E+14  0.2164545E+00    0.000
    2649.500  0.7936689E+14  0.2159776E+00    0.000
    2699.500  0.7928922E+14  0.2157663E+00    0.000
    2749.500  0.7916356E+14  0.2154243E+00    0.000
    2799.500  0.7913216E+14  0.2153389E+00    0.000
    2849.500  0.7900445E+14  0.2149913E+00    0.000
    2899.500  0.7890974E+14  0.2147336E+00    0.000
    2949.500  0.7884801E+14  0.2145656E+00    0.000
    2999.500  0.7877263E+14  0.2143605E+00    0.000
    3049.500  0.7869795E+14  0.2141573E+00    0.000
    3099.500  0.7862513E+14  0.2139591E+00    0.000
    3149.500  0.7860835E+14  0.2139135E+00    0.000
    3199.500  0.7854772E+14  0.2137485E+00    0.000
    3249.500  0.7854584E+14  0.2137433E+00    0.000
    3299.500  0.7851311E+14  0.2136543E+00    0.000
    3349.500  0.7852313E+14  0.2136815E+00    0.000
    3399.500  0.7847714E+14  0.2135564E+00    0.000
    3449.500  0.7852565E+14  0.2136884E+00    0.000
    3499.500  0.7855327E+14  0.2137635E+00    0.000
    3549.500  0.7852036E+14  0.2136740E+00    0.000
    3599.500  0.7849350E+14  0.2136009E+00    0.000
    3649.500  0.7851125E+14  0.2136492E+00    0.000
    3699.500  0.7862882E+14  0.2139691E+00    0.000
    3749.500  0.7859354E+14  0.2138731E+00    0.000
    3799.500  0.7872531E+14  0.2142317E+00    0.000
    3849.500  0.7879435E+14  0.2144196E+00    0.000
    3899.500  0.7872582E+14  0.2142331E+00    0.000
    3949.500  0.7881471E+14  0.2144750E+00    0.000
    3999.500  0.7881925E+14  0.2144873E+00    0.000
    4049.500  0.7889341E+14  0.2146892E+00    0.000
    4099.500  0.7904931E+14  0.2151134E+00    0.000
    4149.500  0.7903723E+14  0.2150805E+00    0.000
    4199.500  0.7914875E+14  0.2153840E+00    0.000
    4249.500  0.7919609E+14  0.2155128E+00    0.000
    4299.500  0.7927360E+14  0.2157238E+00    0.000
    4349.500  0.7936763E+14  0.2159796E+00    0.000
    4399.500  0.7946473E+14  0.2162439E+00    0.000
    4449.500  0.7954253E+14  0.2164556E+00    0.000
    4499.500  0.7953586E+14  0.2164374E+00    0.000
    4549.500  0.7962508E+14  0.2166802E+00    0.000
    4599.500  0.7971376E+14  0.2169215E+00    0.000
    4649.500  0.7978883E+14  0.2171258E+00    0.000
    4699.500  0.7983102E+14  0.2172406E+00    0.000
    4749.500  0.8000832E+14  0.2177231E+00    0.000
    4799.500  0.8008807E+14  0.2179401E+00    0.000
    4849.500  0.8012642E+14  0.2180445E+00    0.000
    4899.500  0.8015640E+14  0.2181261E+00    0.000
    4949.500  0.8027637E+14  0.2184525E+00    0.000
    4999.500  0.8034408E+14  0.2186368E+00    0.000
    5049.500  0.8042391E+14  0.2188540E+00    0.000
    5099.500  0.8047114E+14  0.2189826E+00    0.000
    5149.500  0.8055296E+14  0.2192052E+00    0.000
    5199.500  0.8060248E+14  0.2193400E+00    0.000
    5249.500  0.8060721E+14  0.2193529E+00    0.000
    5299.500  0.8073612E+14  0.2197036E+00    0.000
    5349.500  0.8077321E+14  0.2198046E+00    0.000
    5399.500  0.8079644E+14  0.2198678E+00    0.000
    5449.500  0.8089597E+14  0.2201386E+00    0.000
    5499.500  0.8089185E+14  0.2201274E+00    0.000
    5549.500  0.8092666E+14  0.2202222E+00    0.000
    5599.500  0.8094662E+14  0.2202765E+00    0.000
    5649.500  0.8103970E+14  0.2205298E+00    0.000
    5699.500  0.8099480E+14  0.2204076E+00    0.000
    5749.500  0.8108657E+14  0.2206573E+00    0.000
    5799.500  0.8105198E+14  0.2205632E+00    0.000
    5849.500  0.8100942E+14  0.2204474E+00    0.000
    5899.500  0.8103510E+14  0.2205172E+00    0.000
    5949.500  0.8119157E+14  0.2209430E+00    0.000
    5999.500  0.8120133E+14  0.2209696E+00    0.000
    6049.500  0.8119949E+14  0.2209646E+00    0.000
    6099.500  0.8121227E+14  0.2209994E+00    0.000
    6149.500  0.8118530E+14  0.2209260E+00    0.000
    6199.500  0.8124222E+14  0.2210809E+00    0.000
    6249.500  0.8126298E+14  0.2211374E+00    0.000
    6299.500  0.8115138E+14  0.2208337E+00    0.000
    6349.500  0.8123285E+14  0.2210554E+00    0.000
    6399.500  0.8117352E+14  0.2208939E+00    0.000
    6449.500  0.8124297E+14  0.2210829E+00    0.000
    6499.500  0.8122002E+14  0.2210205E+00    0.000
    6549.500  0.8129201E+14  0.2212164E+00    0.000
    6599.500  0.8129170E+14  0.2212155E+00    0.000
