 % time (yr) / global POC flux (mol yr-1) / global POC density (mol m-2 yr-1)
       0.500  0.1105134E+15  0.3007352E+00
       1.500  0.1195796E+15  0.3254067E+00
       2.500  0.1161761E+15  0.3161450E+00
       3.500  0.1078729E+15  0.2935498E+00
       4.500  0.1001266E+15  0.2724701E+00
       5.500  0.9439377E+14  0.2568696E+00
       6.500  0.9011477E+14  0.2452254E+00
       7.500  0.8648568E+14  0.2353497E+00
       8.500  0.8348418E+14  0.2271818E+00
       9.500  0.8011297E+14  0.2180079E+00
      10.500  0.7760711E+14  0.2111888E+00
      11.500  0.7533700E+14  0.2050113E+00
      12.500  0.7327328E+14  0.1993953E+00
      13.500  0.7148823E+14  0.1945378E+00
      14.500  0.6989954E+14  0.1902145E+00
      15.500  0.6856075E+14  0.1865714E+00
      16.500  0.6736878E+14  0.1833277E+00
      17.500  0.6637649E+14  0.1806274E+00
      18.500  0.6555114E+14  0.1783814E+00
      19.500  0.6482679E+14  0.1764103E+00
      21.500  0.6380808E+14  0.1736381E+00
      23.500  0.6305764E+14  0.1715960E+00
      25.500  0.6246871E+14  0.1699933E+00
      27.500  0.6197489E+14  0.1686495E+00
      29.500  0.6149780E+14  0.1673513E+00
      31.500  0.6106321E+14  0.1661686E+00
      33.500  0.6058161E+14  0.1648581E+00
      35.500  0.6011779E+14  0.1635959E+00
      37.500  0.5963608E+14  0.1622850E+00
      39.500  0.5912151E+14  0.1608848E+00
      41.500  0.5868891E+14  0.1597076E+00
      43.500  0.5822774E+14  0.1584526E+00
      45.500  0.5780111E+14  0.1572916E+00
      47.500  0.5744040E+14  0.1563100E+00
      49.500  0.5713644E+14  0.1554829E+00
      51.500  0.5677797E+14  0.1545074E+00
      53.500  0.5654142E+14  0.1538637E+00
      55.500  0.5634210E+14  0.1533213E+00
      57.500  0.5617005E+14  0.1528531E+00
      59.500  0.5602560E+14  0.1524600E+00
      61.500  0.5589768E+14  0.1521119E+00
      63.500  0.5579187E+14  0.1518240E+00
      65.500  0.5568863E+14  0.1515430E+00
      67.500  0.5559219E+14  0.1512806E+00
      69.500  0.5549758E+14  0.1510231E+00
      71.500  0.5542191E+14  0.1508172E+00
      73.500  0.5536312E+14  0.1506572E+00
      75.500  0.5529700E+14  0.1504773E+00
      77.500  0.5523707E+14  0.1503142E+00
      79.500  0.5517745E+14  0.1501520E+00
      81.500  0.5512069E+14  0.1499975E+00
      83.500  0.5506015E+14  0.1498328E+00
      85.500  0.5500061E+14  0.1496707E+00
      87.500  0.5493235E+14  0.1494850E+00
      89.500  0.5487192E+14  0.1493206E+00
      91.500  0.5481693E+14  0.1491709E+00
      93.500  0.5475803E+14  0.1490106E+00
      95.500  0.5469549E+14  0.1488404E+00
      97.500  0.5464206E+14  0.1486950E+00
      99.500  0.5455977E+14  0.1484711E+00
     104.500  0.5435265E+14  0.1479075E+00
     109.500  0.5414872E+14  0.1473525E+00
     114.500  0.5400195E+14  0.1469531E+00
     119.500  0.5390557E+14  0.1466908E+00
     124.500  0.5384340E+14  0.1465217E+00
     129.500  0.5380463E+14  0.1464162E+00
     134.500  0.5378147E+14  0.1463531E+00
     139.500  0.5377876E+14  0.1463458E+00
     144.500  0.5377317E+14  0.1463306E+00
     149.500  0.5376824E+14  0.1463172E+00
     154.500  0.5377465E+14  0.1463346E+00
     159.500  0.5379792E+14  0.1463979E+00
     164.500  0.5384996E+14  0.1465395E+00
     169.500  0.5387473E+14  0.1466069E+00
     174.500  0.5372883E+14  0.1462099E+00
     179.500  0.5371592E+14  0.1461748E+00
     184.500  0.5370618E+14  0.1461483E+00
     189.500  0.5372604E+14  0.1462023E+00
     194.500  0.5376215E+14  0.1463006E+00
     199.500  0.5380434E+14  0.1464154E+00
     204.500  0.5387423E+14  0.1466056E+00
     209.500  0.5392169E+14  0.1467347E+00
     214.500  0.5397417E+14  0.1468775E+00
     219.500  0.5401400E+14  0.1469859E+00
     224.500  0.5406983E+14  0.1471378E+00
     229.500  0.5411526E+14  0.1472615E+00
     234.500  0.5415440E+14  0.1473680E+00
     239.500  0.5418283E+14  0.1474453E+00
     244.500  0.5420154E+14  0.1474963E+00
     249.500  0.5423646E+14  0.1475913E+00
     254.500  0.5415706E+14  0.1473752E+00
     259.500  0.5414725E+14  0.1473485E+00
     264.500  0.5411348E+14  0.1472566E+00
     269.500  0.5406646E+14  0.1471287E+00
     274.500  0.5405922E+14  0.1471090E+00
     279.500  0.5399053E+14  0.1469220E+00
     284.500  0.5393638E+14  0.1467747E+00
     289.500  0.5387219E+14  0.1466000E+00
     294.500  0.5379290E+14  0.1463843E+00
     299.500  0.5371302E+14  0.1461669E+00
     304.500  0.5369469E+14  0.1461170E+00
     309.500  0.5359413E+14  0.1458433E+00
     314.500  0.5349409E+14  0.1455711E+00
     319.500  0.5340826E+14  0.1453375E+00
     324.500  0.5334834E+14  0.1451745E+00
     329.500  0.5328910E+14  0.1450133E+00
     334.500  0.5320800E+14  0.1447926E+00
     339.500  0.5309805E+14  0.1444934E+00
     344.500  0.5305327E+14  0.1443715E+00
     349.500  0.5298665E+14  0.1441902E+00
     354.500  0.5291956E+14  0.1440077E+00
     359.500  0.5284639E+14  0.1438085E+00
     364.500  0.5278216E+14  0.1436338E+00
     369.500  0.5275285E+14  0.1435540E+00
     374.500  0.5269972E+14  0.1434094E+00
     379.500  0.5264442E+14  0.1432589E+00
     384.500  0.5260696E+14  0.1431570E+00
     389.500  0.5252571E+14  0.1429359E+00
     394.500  0.5251320E+14  0.1429019E+00
     399.500  0.5243116E+14  0.1426786E+00
     404.500  0.5242253E+14  0.1426551E+00
     409.500  0.5233139E+14  0.1424071E+00
     414.500  0.5229230E+14  0.1423007E+00
     419.500  0.5225100E+14  0.1421883E+00
     424.500  0.5217134E+14  0.1419716E+00
     429.500  0.5211135E+14  0.1418083E+00
     434.500  0.5207955E+14  0.1417218E+00
     439.500  0.5211703E+14  0.1418238E+00
     444.500  0.5194899E+14  0.1413665E+00
     449.500  0.5199110E+14  0.1414811E+00
     454.500  0.5191316E+14  0.1412690E+00
     459.500  0.5189693E+14  0.1412248E+00
     464.500  0.5187563E+14  0.1411669E+00
     469.500  0.5180947E+14  0.1409868E+00
     474.500  0.5182974E+14  0.1410420E+00
     479.500  0.5174910E+14  0.1408225E+00
     484.500  0.5173729E+14  0.1407904E+00
     489.500  0.5174496E+14  0.1408113E+00
     494.500  0.5163400E+14  0.1405093E+00
     499.500  0.5163349E+14  0.1405079E+00
     504.500  0.5155570E+14  0.1402963E+00
     509.500  0.5154665E+14  0.1402716E+00
     514.500  0.5148905E+14  0.1401149E+00
     519.500  0.5145251E+14  0.1400155E+00
     524.500  0.5146834E+14  0.1400585E+00
     529.500  0.5137861E+14  0.1398143E+00
     534.500  0.5131078E+14  0.1396298E+00
     539.500  0.5127300E+14  0.1395270E+00
     544.500  0.5123060E+14  0.1394116E+00
     549.500  0.5122546E+14  0.1393976E+00
     554.500  0.5114773E+14  0.1391861E+00
     559.500  0.5115873E+14  0.1392160E+00
     564.500  0.5108105E+14  0.1390046E+00
     569.500  0.5110804E+14  0.1390781E+00
     574.500  0.5106909E+14  0.1389721E+00
     579.500  0.5103414E+14  0.1388769E+00
     584.500  0.5096576E+14  0.1386909E+00
     589.500  0.5088986E+14  0.1384843E+00
     594.500  0.5084543E+14  0.1383634E+00
     599.500  0.5082933E+14  0.1383196E+00
     604.500  0.5083368E+14  0.1383314E+00
     609.500  0.5079913E+14  0.1382374E+00
     614.500  0.5079684E+14  0.1382312E+00
     619.500  0.5076243E+14  0.1381376E+00
     624.500  0.5070321E+14  0.1379764E+00
     629.500  0.5064519E+14  0.1378185E+00
     634.500  0.5065768E+14  0.1378525E+00
     639.500  0.5065745E+14  0.1378519E+00
     644.500  0.5058780E+14  0.1376624E+00
     649.500  0.5050099E+14  0.1374261E+00
     654.500  0.5051930E+14  0.1374759E+00
     659.500  0.5054694E+14  0.1375512E+00
     664.500  0.5044210E+14  0.1372659E+00
     669.500  0.5043698E+14  0.1372519E+00
     674.500  0.5045129E+14  0.1372909E+00
     679.500  0.5035755E+14  0.1370358E+00
     684.500  0.5025041E+14  0.1367442E+00
     689.500  0.5034127E+14  0.1369915E+00
     694.500  0.5031352E+14  0.1369160E+00
     699.500  0.5035522E+14  0.1370294E+00
     704.500  0.5024161E+14  0.1367203E+00
     709.500  0.5017882E+14  0.1365494E+00
     714.500  0.5015307E+14  0.1364793E+00
     719.500  0.5015857E+14  0.1364943E+00
     724.500  0.5007755E+14  0.1362738E+00
     729.500  0.5007883E+14  0.1362773E+00
     734.500  0.5001247E+14  0.1360967E+00
     739.500  0.4999699E+14  0.1360546E+00
     744.500  0.4993647E+14  0.1358899E+00
     749.500  0.4993952E+14  0.1358982E+00
     754.500  0.4999486E+14  0.1360488E+00
     759.500  0.4993301E+14  0.1358805E+00
     764.500  0.4987325E+14  0.1357179E+00
     769.500  0.4981586E+14  0.1355617E+00
     774.500  0.4981671E+14  0.1355640E+00
     779.500  0.4976332E+14  0.1354187E+00
     784.500  0.4974507E+14  0.1353691E+00
     789.500  0.4970617E+14  0.1352632E+00
     794.500  0.4974369E+14  0.1353653E+00
     799.500  0.4972646E+14  0.1353184E+00
     804.500  0.4967720E+14  0.1351844E+00
     809.500  0.4967775E+14  0.1351859E+00
     814.500  0.4957189E+14  0.1348978E+00
     819.500  0.4965547E+14  0.1351252E+00
     824.500  0.4956749E+14  0.1348858E+00
     829.500  0.4955178E+14  0.1348431E+00
     834.500  0.4955100E+14  0.1348410E+00
     839.500  0.4952898E+14  0.1347810E+00
     844.500  0.4951784E+14  0.1347507E+00
     849.500  0.4946951E+14  0.1346192E+00
     854.500  0.4946240E+14  0.1345998E+00
     859.500  0.4939415E+14  0.1344141E+00
     864.500  0.4938188E+14  0.1343807E+00
     869.500  0.4939937E+14  0.1344283E+00
     874.500  0.4945800E+14  0.1345879E+00
     879.500  0.4931078E+14  0.1341872E+00
     884.500  0.4937510E+14  0.1343623E+00
     889.500  0.4926263E+14  0.1340562E+00
     894.500  0.4933539E+14  0.1342542E+00
     899.500  0.4930253E+14  0.1341648E+00
     904.500  0.4925658E+14  0.1340398E+00
     909.500  0.4920928E+14  0.1339110E+00
     914.500  0.4917617E+14  0.1338209E+00
     919.500  0.4915600E+14  0.1337661E+00
     924.500  0.4913261E+14  0.1337024E+00
     929.500  0.4910659E+14  0.1336316E+00
     934.500  0.4904807E+14  0.1334723E+00
     939.500  0.4908778E+14  0.1335804E+00
     944.500  0.4908049E+14  0.1335606E+00
     949.500  0.4900675E+14  0.1333599E+00
     954.500  0.4907782E+14  0.1335533E+00
     959.500  0.4897486E+14  0.1332731E+00
     964.500  0.4906175E+14  0.1335096E+00
     969.500  0.4896141E+14  0.1332365E+00
     974.500  0.4885292E+14  0.1329413E+00
     979.500  0.4890040E+14  0.1330705E+00
     984.500  0.4887037E+14  0.1329888E+00
     989.500  0.4891635E+14  0.1331139E+00
     994.500  0.4886423E+14  0.1329721E+00
     999.500  0.4894073E+14  0.1331803E+00
    1019.500  0.4875541E+14  0.1326760E+00
    1039.500  0.4864182E+14  0.1323669E+00
    1059.500  0.4859154E+14  0.1322300E+00
    1079.500  0.4851285E+14  0.1320159E+00
    1099.500  0.4840949E+14  0.1317346E+00
    1119.500  0.4835953E+14  0.1315987E+00
    1139.500  0.4829912E+14  0.1314343E+00
    1159.500  0.4822926E+14  0.1312442E+00
    1179.500  0.4816478E+14  0.1310687E+00
    1199.500  0.4807857E+14  0.1308341E+00
    1219.500  0.4798092E+14  0.1305684E+00
    1239.500  0.4790794E+14  0.1303698E+00
    1259.500  0.4783081E+14  0.1301599E+00
    1279.500  0.4780756E+14  0.1300966E+00
    1299.500  0.4774517E+14  0.1299268E+00
    1319.500  0.4766073E+14  0.1296970E+00
    1339.500  0.4760491E+14  0.1295451E+00
    1359.500  0.4755774E+14  0.1294168E+00
    1379.500  0.4744237E+14  0.1291028E+00
    1399.500  0.4734374E+14  0.1288344E+00
    1419.500  0.4730120E+14  0.1287187E+00
    1439.500  0.4723151E+14  0.1285290E+00
    1459.500  0.4717171E+14  0.1283663E+00
    1479.500  0.4715592E+14  0.1283233E+00
    1499.500  0.4708061E+14  0.1281184E+00
    1519.500  0.4702053E+14  0.1279549E+00
    1539.500  0.4696520E+14  0.1278043E+00
    1559.500  0.4690572E+14  0.1276425E+00
    1579.500  0.4687718E+14  0.1275648E+00
    1599.500  0.4680523E+14  0.1273690E+00
    1619.500  0.4677005E+14  0.1272733E+00
    1639.500  0.4677263E+14  0.1272803E+00
    1659.500  0.4671258E+14  0.1271169E+00
    1679.500  0.4667625E+14  0.1270180E+00
    1699.500  0.4664074E+14  0.1269214E+00
    1719.500  0.4657227E+14  0.1267351E+00
    1739.500  0.4654102E+14  0.1266500E+00
    1759.500  0.4651674E+14  0.1265840E+00
    1779.500  0.4649064E+14  0.1265129E+00
    1799.500  0.4644955E+14  0.1264011E+00
    1819.500  0.4643221E+14  0.1263539E+00
    1839.500  0.4638251E+14  0.1262187E+00
    1859.500  0.4633809E+14  0.1260978E+00
    1879.500  0.4631817E+14  0.1260436E+00
    1899.500  0.4630305E+14  0.1260025E+00
    1919.500  0.4627690E+14  0.1259313E+00
    1939.500  0.4627493E+14  0.1259259E+00
    1959.500  0.4622237E+14  0.1257829E+00
    1979.500  0.4624595E+14  0.1258471E+00
    1999.500  0.4621563E+14  0.1257646E+00
    2049.500  0.4612903E+14  0.1255289E+00
    2099.500  0.4610411E+14  0.1254611E+00
    2149.500  0.4610140E+14  0.1254537E+00
    2199.500  0.4603548E+14  0.1252743E+00
    2249.500  0.4601195E+14  0.1252103E+00
    2299.500  0.4597010E+14  0.1250964E+00
    2349.500  0.4600399E+14  0.1251886E+00
    2399.500  0.4599707E+14  0.1251698E+00
    2449.500  0.4591383E+14  0.1249433E+00
    2499.500  0.4593330E+14  0.1249963E+00
    2549.500  0.4589873E+14  0.1249022E+00
    2599.500  0.4587005E+14  0.1248241E+00
    2649.500  0.4584376E+14  0.1247526E+00
    2699.500  0.4590856E+14  0.1249290E+00
    2749.500  0.4585021E+14  0.1247702E+00
    2799.500  0.4590255E+14  0.1249126E+00
    2849.500  0.4584294E+14  0.1247504E+00
    2899.500  0.4581341E+14  0.1246700E+00
    2949.500  0.4580132E+14  0.1246371E+00
    2999.500  0.4581693E+14  0.1246796E+00
    3049.500  0.4576089E+14  0.1245271E+00
    3099.500  0.4576669E+14  0.1245429E+00
    3149.500  0.4589626E+14  0.1248955E+00
    3199.500  0.4589084E+14  0.1248807E+00
    3249.500  0.4581426E+14  0.1246723E+00
    3299.500  0.4581211E+14  0.1246665E+00
    3349.500  0.4575097E+14  0.1245001E+00
    3399.500  0.4576527E+14  0.1245390E+00
    3449.500  0.4578904E+14  0.1246037E+00
    3499.500  0.4579518E+14  0.1246204E+00
    3549.500  0.4579215E+14  0.1246122E+00
    3599.500  0.4582671E+14  0.1247062E+00
    3649.500  0.4580572E+14  0.1246491E+00
    3699.500  0.4582352E+14  0.1246975E+00
    3749.500  0.4583625E+14  0.1247322E+00
    3799.500  0.4579152E+14  0.1246104E+00
    3849.500  0.4582383E+14  0.1246984E+00
    3899.500  0.4579882E+14  0.1246303E+00
    3949.500  0.4587391E+14  0.1248347E+00
    3999.500  0.4586417E+14  0.1248081E+00
    4049.500  0.4580684E+14  0.1246521E+00
    4099.500  0.4584533E+14  0.1247569E+00
    4149.500  0.4579779E+14  0.1246275E+00
    4199.500  0.4587078E+14  0.1248261E+00
    4249.500  0.4584611E+14  0.1247590E+00
    4299.500  0.4590601E+14  0.1249220E+00
    4349.500  0.4588492E+14  0.1248646E+00
    4399.500  0.4591652E+14  0.1249506E+00
    4449.500  0.4589046E+14  0.1248797E+00
    4499.500  0.4587777E+14  0.1248451E+00
    4549.500  0.4586833E+14  0.1248195E+00
    4599.500  0.4586506E+14  0.1248106E+00
    4649.500  0.4589037E+14  0.1248794E+00
    4699.500  0.4587460E+14  0.1248365E+00
    4749.500  0.4589789E+14  0.1248999E+00
    4799.500  0.4593181E+14  0.1249922E+00
    4849.500  0.4591589E+14  0.1249489E+00
    4899.500  0.4592457E+14  0.1249725E+00
    4949.500  0.4589409E+14  0.1248896E+00
    4999.500  0.4595777E+14  0.1250629E+00
    5049.500  0.4597298E+14  0.1251042E+00
    5099.500  0.4594707E+14  0.1250337E+00
    5149.500  0.4593543E+14  0.1250021E+00
    5199.500  0.4593191E+14  0.1249925E+00
    5249.500  0.4599177E+14  0.1251554E+00
    5299.500  0.4600131E+14  0.1251813E+00
    5349.500  0.4598371E+14  0.1251334E+00
    5399.500  0.4594432E+14  0.1250263E+00
    5449.500  0.4597788E+14  0.1251176E+00
    5499.500  0.4599308E+14  0.1251590E+00
    5549.500  0.4601729E+14  0.1252248E+00
    5599.500  0.4593211E+14  0.1249930E+00
    5649.500  0.4600394E+14  0.1251885E+00
    5699.500  0.4595771E+14  0.1250627E+00
    5749.500  0.4600496E+14  0.1251913E+00
    5799.500  0.4597382E+14  0.1251065E+00
    5849.500  0.4601342E+14  0.1252143E+00
    5899.500  0.4595899E+14  0.1250662E+00
    5949.500  0.4610444E+14  0.1254620E+00
    5999.500  0.4601477E+14  0.1252180E+00
    6049.500  0.4605119E+14  0.1253171E+00
    6099.500  0.4599982E+14  0.1251773E+00
    6149.500  0.4603042E+14  0.1252605E+00
    6199.500  0.4607515E+14  0.1253823E+00
    6249.500  0.4602412E+14  0.1252434E+00
    6299.500  0.4599345E+14  0.1251600E+00
    6349.500  0.4606100E+14  0.1253438E+00
    6399.500  0.4602891E+14  0.1252564E+00
    6449.500  0.4604155E+14  0.1252908E+00
    6499.500  0.4597116E+14  0.1250993E+00
    6549.500  0.4606410E+14  0.1253522E+00
    6599.500  0.4602210E+14  0.1252379E+00
    6649.500  0.4603032E+14  0.1252603E+00
    6699.500  0.4610482E+14  0.1254630E+00
    6749.500  0.4600720E+14  0.1251974E+00
    6799.500  0.4604429E+14  0.1252983E+00
    6849.500  0.4602409E+14  0.1252433E+00
    6899.500  0.4600858E+14  0.1252011E+00
    6949.500  0.4601571E+14  0.1252205E+00
    6999.500  0.4612177E+14  0.1255091E+00
    7049.500  0.4600092E+14  0.1251803E+00
    7099.500  0.4603084E+14  0.1252617E+00
    7149.500  0.4603140E+14  0.1252632E+00
    7199.500  0.4605957E+14  0.1253399E+00
    7249.500  0.4601602E+14  0.1252214E+00
    7299.500  0.4602068E+14  0.1252341E+00
    7349.500  0.4601231E+14  0.1252113E+00
    7399.500  0.4607629E+14  0.1253854E+00
    7449.500  0.4601137E+14  0.1252087E+00
    7499.500  0.4608787E+14  0.1254169E+00
    7549.500  0.4607281E+14  0.1253759E+00
    7599.500  0.4604171E+14  0.1252913E+00
    7649.500  0.4601875E+14  0.1252288E+00
    7699.500  0.4603354E+14  0.1252691E+00
    7749.500  0.4601841E+14  0.1252279E+00
    7799.500  0.4603663E+14  0.1252775E+00
    7849.500  0.4601151E+14  0.1252091E+00
    7899.500  0.4607013E+14  0.1253686E+00
    7949.500  0.4601389E+14  0.1252156E+00
    7999.500  0.4600976E+14  0.1252043E+00
    8049.500  0.4605683E+14  0.1253324E+00
    8099.500  0.4599423E+14  0.1251621E+00
    8149.500  0.4607593E+14  0.1253844E+00
    8199.500  0.4608099E+14  0.1253982E+00
    8249.500  0.4602709E+14  0.1252515E+00
    8299.500  0.4601262E+14  0.1252121E+00
    8349.500  0.4601064E+14  0.1252067E+00
    8399.500  0.4600859E+14  0.1252012E+00
    8449.500  0.4600111E+14  0.1251808E+00
    8499.500  0.4600784E+14  0.1251991E+00
    8549.500  0.4602027E+14  0.1252329E+00
    8599.500  0.4610655E+14  0.1254677E+00
    8649.500  0.4602616E+14  0.1252490E+00
    8699.500  0.4606374E+14  0.1253512E+00
    8749.500  0.4607286E+14  0.1253760E+00
    8799.500  0.4608631E+14  0.1254127E+00
    8849.500  0.4605252E+14  0.1253207E+00
    8899.500  0.4611918E+14  0.1255021E+00
    8949.500  0.4600402E+14  0.1251887E+00
    8999.500  0.4600422E+14  0.1251892E+00
    9049.500  0.4604330E+14  0.1252956E+00
    9099.500  0.4601198E+14  0.1252104E+00
    9149.500  0.4605436E+14  0.1253257E+00
    9199.500  0.4607247E+14  0.1253750E+00
    9249.500  0.4600280E+14  0.1251854E+00
    9299.500  0.4603121E+14  0.1252627E+00
    9349.500  0.4604979E+14  0.1253133E+00
    9399.500  0.4604443E+14  0.1252987E+00
    9449.500  0.4607574E+14  0.1253839E+00
    9499.500  0.4602545E+14  0.1252470E+00
    9549.500  0.4603886E+14  0.1252835E+00
    9599.500  0.4600573E+14  0.1251934E+00
    9649.500  0.4600937E+14  0.1252033E+00
    9699.500  0.4601368E+14  0.1252150E+00
    9749.500  0.4603204E+14  0.1252650E+00
    9799.500  0.4605438E+14  0.1253258E+00
    9849.500  0.4605024E+14  0.1253145E+00
    9899.500  0.4601311E+14  0.1252134E+00
    9949.500  0.4605610E+14  0.1253304E+00
    9999.500  0.4603823E+14  0.1252818E+00
