 % time (yr) / surface air temperature (degrees C)
       0.500    1.785473
       1.500    4.431366
       2.500    6.126061
       3.500    7.176606
       4.500    7.889208
       5.500    8.421360
       6.500    8.836720
       7.500    9.184701
       8.500    9.473433
       9.500    9.709748
      10.500    9.928303
      11.500   10.118316
      12.500   10.290195
      13.500   10.455957
      14.500   10.610049
      15.500   10.760172
      16.500   10.902258
      17.500   11.037684
      18.500   11.165650
      19.500   11.285285
      21.500   11.503541
      23.500   11.690670
      25.500   11.848131
      27.500   11.981387
      29.500   12.100756
      31.500   12.212394
      33.500   12.313331
      35.500   12.407154
      37.500   12.493638
      39.500   12.570951
      41.500   12.639816
      43.500   12.701623
      45.500   12.756491
      47.500   12.805500
      49.500   12.851264
      51.500   12.893664
      53.500   12.932399
      55.500   12.969700
      57.500   13.006007
      59.500   13.040408
      61.500   13.073090
      63.500   13.103082
      65.500   13.131942
      67.500   13.158851
      69.500   13.183642
      71.500   13.207174
      73.500   13.229524
      75.500   13.250312
      77.500   13.270116
      79.500   13.288468
      81.500   13.305863
      83.500   13.322165
      85.500   13.337621
      87.500   13.352579
      89.500   13.366474
      91.500   13.378981
      93.500   13.390686
      95.500   13.401826
      97.500   13.412281
      99.500   13.422069
     104.500   13.444022
     109.500   13.463852
     114.500   13.482667
     119.500   13.500673
     124.500   13.516756
     129.500   13.530605
     134.500   13.542927
     139.500   13.554672
     144.500   13.564914
     149.500   13.575258
     154.500   13.582943
     159.500   13.587845
     164.500   13.591738
     169.500   13.585785
     174.500   13.573998
     179.500   13.576581
     184.500   13.582642
     189.500   13.587047
     194.500   13.591247
     199.500   13.594016
     204.500   13.595795
     209.500   13.597661
     214.500   13.599258
     219.500   13.600336
     224.500   13.601580
     229.500   13.602463
     234.500   13.603618
     239.500   13.603343
     244.500   13.602924
     249.500   13.602785
     254.500   13.601940
     259.500   13.600231
     264.500   13.598744
     269.500   13.596447
     274.500   13.595336
     279.500   13.593148
     284.500   13.591554
     289.500   13.589419
     294.500   13.587562
     299.500   13.585040
     304.500   13.581295
     309.500   13.577350
     314.500   13.574085
     319.500   13.570031
     324.500   13.565839
     329.500   13.561300
     334.500   13.556640
     339.500   13.550973
     344.500   13.543175
     349.500   13.536860
     354.500   13.529664
     359.500   13.520335
     364.500   13.510488
     369.500   13.504836
     374.500   13.498649
     379.500   13.491383
     384.500   13.482343
     389.500   13.474405
     394.500   13.465750
     399.500   13.454353
     404.500   13.444456
     409.500   13.430455
     414.500   13.421545
     419.500   13.413667
     424.500   13.401500
     429.500   13.387541
     434.500   13.380009
     439.500   13.373002
     444.500   13.375203
     449.500   13.363954
     454.500   13.353871
     459.500   13.349309
     464.500   13.340230
     469.500   13.332774
     474.500   13.326156
     479.500   13.318224
     484.500   13.310309
     489.500   13.303227
     494.500   13.295719
     499.500   13.289963
     504.500   13.281146
     509.500   13.274144
     514.500   13.266926
     519.500   13.260217
     524.500   13.254618
     529.500   13.244680
     534.500   13.232646
     539.500   13.225359
     544.500   13.218201
     549.500   13.212167
     554.500   13.201127
     559.500   13.194840
     564.500   13.186472
     569.500   13.180843
     574.500   13.175359
     579.500   13.167019
     584.500   13.158664
     589.500   13.150882
     594.500   13.141345
     599.500   13.132296
     604.500   13.127524
     609.500   13.120788
     614.500   13.115844
     619.500   13.107569
     624.500   13.102476
     629.500   13.095198
     634.500   13.088907
     639.500   13.082868
     644.500   13.077629
     649.500   13.067553
     654.500   13.060605
     659.500   13.055003
     664.500   13.048634
     669.500   13.041906
     674.500   13.033795
     679.500   13.023516
     684.500   13.014370
     689.500   13.006870
     694.500   13.003042
     699.500   13.001778
     704.500   12.996048
     709.500   12.984379
     714.500   12.974969
     719.500   12.968644
     724.500   12.960913
     729.500   12.954932
     734.500   12.950017
     739.500   12.943349
     744.500   12.934799
     749.500   12.926887
     754.500   12.920845
     759.500   12.912908
     764.500   12.905604
     769.500   12.896890
     774.500   12.888026
     779.500   12.878729
     784.500   12.876445
     789.500   12.870188
     794.500   12.868091
     799.500   12.862584
     804.500   12.852196
     809.500   12.845744
     814.500   12.838137
     819.500   12.831198
     824.500   12.822114
     829.500   12.812746
     834.500   12.804030
     839.500   12.797494
     844.500   12.787379
     849.500   12.777290
     854.500   12.772182
     859.500   12.760375
     864.500   12.756186
     869.500   12.744682
     874.500   12.738500
     879.500   12.730862
     884.500   12.722652
     889.500   12.713816
     894.500   12.705976
     899.500   12.700628
     904.500   12.697557
     909.500   12.688639
     914.500   12.681706
     919.500   12.668942
     924.500   12.657628
     929.500   12.656896
     934.500   12.646982
     939.500   12.639574
     944.500   12.630909
     949.500   12.622432
     954.500   12.615749
     959.500   12.611060
     964.500   12.603504
     969.500   12.596501
     974.500   12.588230
     979.500   12.581458
     984.500   12.574973
     989.500   12.567724
     994.500   12.557865
     999.500   12.554095
    1019.500   12.529508
    1039.500   12.507624
    1059.500   12.485455
    1079.500   12.462929
    1099.500   12.442525
    1119.500   12.420997
    1139.500   12.406164
    1159.500   12.392095
    1179.500   12.376668
    1199.500   12.365789
    1219.500   12.353517
    1239.500   12.342487
    1259.500   12.332193
    1279.500   12.321264
    1299.500   12.312634
    1319.500   12.305494
    1339.500   12.299253
    1359.500   12.294332
    1379.500   12.289855
    1399.500   12.283142
    1419.500   12.277143
    1439.500   12.273658
    1459.500   12.268888
    1479.500   12.264831
    1499.500   12.262518
    1519.500   12.258562
    1539.500   12.255302
    1559.500   12.254325
    1579.500   12.252872
    1599.500   12.251748
    1619.500   12.251001
    1639.500   12.249583
    1659.500   12.248854
    1679.500   12.250075
    1699.500   12.249990
    1719.500   12.250017
    1739.500   12.250058
    1759.500   12.250414
    1779.500   12.252153
    1799.500   12.251110
    1819.500   12.253238
    1839.500   12.253070
    1859.500   12.253179
    1879.500   12.254857
    1899.500   12.255394
    1919.500   12.256951
    1939.500   12.259035
    1959.500   12.260587
    1979.500   12.262592
    1999.500   12.264010
    2049.500   12.269058
    2099.500   12.274916
    2149.500   12.280873
    2199.500   12.287052
    2249.500   12.292945
    2299.500   12.298535
    2349.500   12.304899
    2399.500   12.313415
    2449.500   12.319046
    2499.500   12.324247
    2549.500   12.330617
    2599.500   12.336473
    2649.500   12.341107
    2699.500   12.346491
    2749.500   12.350286
    2799.500   12.355365
    2849.500   12.360373
    2899.500   12.364421
    2949.500   12.368173
    2999.500   12.372150
    3049.500   12.375344
    3099.500   12.378055
    3149.500   12.379896
    3199.500   12.381798
    3249.500   12.382565
    3299.500   12.383868
    3349.500   12.386286
    3399.500   12.386627
    3449.500   12.386261
    3499.500   12.387313
    3549.500   12.387601
    3599.500   12.387551
    3649.500   12.386975
    3699.500   12.386608
    3749.500   12.386305
    3799.500   12.386371
    3849.500   12.383827
    3899.500   12.384795
    3949.500   12.383505
    3999.500   12.381782
    4049.500   12.380806
    4099.500   12.379222
    4149.500   12.379661
    4199.500   12.378456
    4249.500   12.377750
    4299.500   12.378021
    4349.500   12.375953
    4399.500   12.374790
    4449.500   12.374348
    4499.500   12.374160
    4549.500   12.374041
    4599.500   12.372408
    4649.500   12.373024
    4699.500   12.372533
    4749.500   12.372404
    4799.500   12.372736
    4849.500   12.371918
    4899.500   12.372562
    4949.500   12.371829
    4999.500   12.372037
    5049.500   12.372194
    5099.500   12.371361
    5149.500   12.372427
    5199.500   12.372088
    5249.500   12.374353
    5299.500   12.372880
    5349.500   12.372362
    5399.500   12.373189
    5449.500   12.372956
    5499.500   12.373954
    5549.500   12.374471
    5599.500   12.373956
    5649.500   12.373412
    5699.500   12.373641
    5749.500   12.373113
    5799.500   12.374457
    5849.500   12.374928
    5899.500   12.375496
    5949.500   12.375607
    5999.500   12.374223
    6049.500   12.374005
    6099.500   12.373870
    6149.500   12.374099
    6199.500   12.375352
    6249.500   12.373815
    6299.500   12.375468
    6349.500   12.374687
    6399.500   12.375542
    6449.500   12.374754
    6499.500   12.374807
    6549.500   12.373897
    6599.500   12.373674
    6649.500   12.375008
    6699.500   12.374540
    6749.500   12.375148
    6799.500   12.375045
    6849.500   12.373522
    6899.500   12.374684
    6949.500   12.373788
    6999.500   12.376314
    7049.500   12.375252
    7099.500   12.375074
    7149.500   12.374373
    7199.500   12.375747
    7249.500   12.374501
    7299.500   12.374073
    7349.500   12.375215
    7399.500   12.374591
    7449.500   12.375527
    7499.500   12.373977
    7549.500   12.374803
    7599.500   12.374456
    7649.500   12.374434
    7699.500   12.374266
    7749.500   12.373855
    7799.500   12.375600
    7849.500   12.374614
    7899.500   12.374225
    7949.500   12.373712
    7999.500   12.374917
    8049.500   12.374145
    8099.500   12.374453
    8149.500   12.375600
    8199.500   12.376051
    8249.500   12.374239
    8299.500   12.375322
    8349.500   12.374574
    8399.500   12.375735
    8449.500   12.374589
    8499.500   12.374172
    8549.500   12.375390
    8599.500   12.375964
    8649.500   12.374538
    8699.500   12.374237
    8749.500   12.375375
    8799.500   12.375011
    8849.500   12.374708
    8899.500   12.375904
    8949.500   12.375604
    8999.500   12.374646
    9049.500   12.374325
    9099.500   12.374097
    9149.500   12.374559
    9199.500   12.374896
    9249.500   12.374913
    9299.500   12.374619
    9349.500   12.374598
    9399.500   12.374421
    9449.500   12.374872
    9499.500   12.374967
    9549.500   12.374120
    9599.500   12.374289
    9649.500   12.374217
    9699.500   12.375824
    9749.500   12.374436
    9799.500   12.373868
    9849.500   12.374166
    9899.500   12.374867
    9949.500   12.374499
    9999.500   12.374656
